Sequence, time(s), pose_x(m), pose_y(m)
361, 36.200000000, 20.407, -39.593
385, 38.600000000, 20.3996, -39.6424
386, 38.700000000, 20.3845, -39.6901
387, 38.800000000, 20.3622, -39.7349
388, 38.900000000, 20.3331, -39.7755
389, 39.000000000, 20.2981, -39.8112
390, 39.100000000, 20.2578, -39.8409
391, 39.200000000, 20.2135, -39.864
392, 39.300000000, 20.1661, -39.8798
393, 39.400000000, 20.1167, -39.888
394, 39.500000000, 20.0667, -39.8884
395, 39.600000000, 20.0173, -39.881
396, 39.700000000, 19.9696, -39.8659
397, 39.800000000, 19.9241, -39.8452
398, 39.900000000, 19.881, -39.8198
399, 40.000000000, 19.8404, -39.7907
400, 40.100000000, 19.8022, -39.7585
401, 40.200000000, 19.7662, -39.7237
402, 40.300000000, 19.7322, -39.6871
403, 40.400000000, 19.6998, -39.649
404, 40.500000000, 19.669, -39.6096
405, 40.600000000, 19.6398, -39.569
406, 40.700000000, 19.6119, -39.5275
407, 40.800000000, 19.5853, -39.4852
408, 40.900000000, 19.56, -39.4421
409, 41.000000000, 19.5355, -39.3985
410, 41.100000000, 19.512, -39.3544
411, 41.200000000, 19.4892, -39.3099
412, 41.300000000, 19.4671, -39.265
413, 41.400000000, 19.4456, -39.2198
414, 41.500000000, 19.4247, -39.1745
415, 41.600000000, 19.4041, -39.1289
416, 41.700000000, 19.384, -39.0831
417, 41.800000000, 19.3643, -39.0371
418, 41.900000000, 19.3449, -38.991
419, 42.000000000, 19.3259, -38.9448
420, 42.100000000, 19.3071, -38.8985
421, 42.200000000, 19.2886, -38.852
422, 42.300000000, 19.2703, -38.8055
423, 42.400000000, 19.2522, -38.7589
424, 42.500000000, 19.2342, -38.7122
425, 42.600000000, 19.2163, -38.6656
426, 42.700000000, 19.1985, -38.6188
427, 42.800000000, 19.1808, -38.572
428, 42.900000000, 19.1633, -38.5252
429, 43.000000000, 19.1458, -38.4784
430, 43.100000000, 19.1283, -38.4315
431, 43.200000000, 19.111, -38.3846
432, 43.300000000, 19.0937, -38.3377
433, 43.400000000, 19.0764, -38.2908
434, 43.500000000, 19.0592, -38.2439
435, 43.600000000, 19.042, -38.1969
436, 43.700000000, 19.0249, -38.1499
437, 43.800000000, 19.0078, -38.103
438, 43.900000000, 18.9907, -38.056
439, 44.000000000, 18.9736, -38.009
440, 44.100000000, 18.9566, -37.962
441, 44.200000000, 18.9396, -37.9149
442, 44.300000000, 18.9226, -37.8679
443, 44.400000000, 18.9055, -37.8209
444, 44.500000000, 18.8883, -37.774
445, 44.600000000, 18.871, -37.7271
446, 44.700000000, 18.8532, -37.6803
447, 44.800000000, 18.8352, -37.6337
448, 44.900000000, 18.8165, -37.5873
449, 45.000000000, 18.7972, -37.5412
450, 45.100000000, 18.7772, -37.4954
451, 45.200000000, 18.7563, -37.4499
452, 45.300000000, 18.7345, -37.405
453, 45.400000000, 18.7115, -37.3605
454, 45.500000000, 18.6874, -37.3167
455, 45.600000000, 18.6621, -37.2736
456, 45.700000000, 18.6355, -37.2313
457, 45.800000000, 18.6072, -37.1901
458, 45.900000000, 18.5777, -37.1497
459, 46.000000000, 18.5468, -37.1104
460, 46.100000000, 18.5146, -37.0722
461, 46.200000000, 18.481, -37.0351
462, 46.300000000, 18.4462, -36.9992
463, 46.400000000, 18.4097, -36.965
464, 46.500000000, 18.3724, -36.9318
465, 46.600000000, 18.3344, -36.8992
466, 46.700000000, 18.2962, -36.8669
467, 46.800000000, 18.2586, -36.834
468, 46.900000000, 18.2217, -36.8003
469, 47.000000000, 18.1846, -36.7668
470, 47.100000000, 18.1474, -36.7333
471, 47.200000000, 18.1109, -36.6992
472, 47.300000000, 18.0744, -36.665
473, 47.400000000, 18.0386, -36.6301
474, 47.500000000, 18.0026, -36.5954
475, 47.600000000, 17.967, -36.5603
476, 47.700000000, 17.932, -36.5246
477, 47.800000000, 17.8972, -36.4887
478, 47.900000000, 17.8631, -36.4522
479, 48.000000000, 17.8288, -36.4157
480, 48.100000000, 17.7952, -36.3787
481, 48.200000000, 17.7631, -36.3404
482, 48.300000000, 17.7302, -36.3027
483, 48.400000000, 17.6974, -36.265
484, 48.500000000, 17.6662, -36.2259
485, 48.600000000, 17.6359, -36.1862
486, 48.700000000, 17.6024, -36.149
487, 48.800000000, 17.5745, -36.1075
488, 48.900000000, 17.5404, -36.071
489, 49.000000000, 17.5052, -36.0354
490, 49.100000000, 17.4761, -35.9947
491, 49.200000000, 17.4467, -35.9543
492, 49.300000000, 17.4228, -35.9104
493, 49.400000000, 17.4061, -35.8633
494, 49.500000000, 17.397, -35.8141
495, 49.600000000, 17.3957, -35.7641
496, 49.700000000, 17.4007, -35.7144
497, 49.800000000, 17.4082, -35.6649
498, 49.900000000, 17.4083, -35.6149
499, 50.000000000, 17.4005, -35.5655
500, 50.100000000, 17.3862, -35.5176
501, 50.200000000, 17.365, -35.4724
502, 50.300000000, 17.3384, -35.43
503, 50.400000000, 17.3126, -35.3872
504, 50.500000000, 17.2916, -35.3418
505, 50.600000000, 17.2744, -35.2948
506, 50.700000000, 17.2501, -35.2512
507, 50.800000000, 17.2192, -35.2118
508, 50.900000000, 17.1826, -35.1778
509, 51.000000000, 17.1411, -35.1499
510, 51.100000000, 17.0957, -35.1289
511, 51.200000000, 17.0476, -35.1152
512, 51.300000000, 16.998, -35.1092
513, 51.400000000, 16.948, -35.1111
514, 51.500000000, 16.8989, -35.1207
515, 51.600000000, 16.852, -35.1379
516, 51.700000000, 16.8083, -35.1622
517, 51.800000000, 16.7614, -35.1794
518, 51.900000000, 16.7177, -35.2037
519, 52.000000000, 16.6707, -35.2209
520, 52.100000000, 16.6217, -35.2306
521, 52.200000000, 16.5747, -35.2478
522, 52.300000000, 16.5257, -35.2574
523, 52.400000000, 16.4787, -35.2746
524, 52.500000000, 16.4296, -35.2843
525, 52.600000000, 16.3797, -35.2861
526, 52.700000000, 16.3306, -35.2957
527, 52.800000000, 16.2807, -35.2976
528, 52.900000000, 16.2316, -35.3072
529, 53.000000000, 16.1816, -35.3091
530, 53.100000000, 16.1326, -35.3187
531, 53.200000000, 16.0826, -35.3206
532, 53.300000000, 16.033, -35.3146
533, 53.400000000, 15.983, -35.3164
534, 53.500000000, 15.9339, -35.3261
535, 53.600000000, 15.884, -35.3279
536, 53.700000000, 15.8343, -35.3219
537, 53.800000000, 15.7862, -35.3082
538, 53.900000000, 15.7366, -35.3022
539, 54.000000000, 15.6866, -35.3041
540, 54.100000000, 15.6376, -35.3137
541, 54.200000000, 15.5876, -35.3156
542, 54.300000000, 15.5385, -35.3252
543, 54.400000000, 15.4886, -35.327
544, 54.500000000, 15.4389, -35.3211
545, 54.600000000, 15.3908, -35.3074
546, 54.700000000, 15.3412, -35.3014
547, 54.800000000, 15.2912, -35.3032
548, 54.900000000, 15.2422, -35.3129
549, 55.000000000, 15.1922, -35.3147
550, 55.100000000, 15.1431, -35.3243
551, 55.200000000, 15.0932, -35.3262
552, 55.300000000, 15.0441, -35.3358
553, 55.400000000, 14.9942, -35.3377
554, 55.500000000, 14.9445, -35.3317
555, 55.600000000, 14.8946, -35.3335
556, 55.700000000, 14.8455, -35.3432
557, 55.800000000, 14.7955, -35.345
558, 55.900000000, 14.7459, -35.339
559, 56.000000000, 14.6959, -35.3409
560, 56.100000000, 14.6463, -35.3349
561, 56.200000000, 14.5963, -35.3367
562, 56.300000000, 14.5467, -35.3307
563, 56.400000000, 14.4967, -35.3326
564, 56.500000000, 14.4476, -35.3422
565, 56.600000000, 14.3977, -35.3441
566, 56.700000000, 14.348, -35.3381
567, 56.800000000, 14.2981, -35.3399
568, 56.900000000, 14.2484, -35.3339
569, 57.000000000, 14.1985, -35.3358
570, 57.100000000, 14.1488, -35.3298
571, 57.200000000, 14.0989, -35.3316
572, 57.300000000, 14.0492, -35.3256
573, 57.400000000, 14.0011, -35.3119
574, 57.500000000, 13.9515, -35.306
575, 57.600000000, 13.9015, -35.3078
576, 57.700000000, 13.8525, -35.3174
577, 57.800000000, 13.8025, -35.3193
578, 57.900000000, 13.7529, -35.3133
579, 58.000000000, 13.7029, -35.3151
580, 58.100000000, 13.6538, -35.3248
581, 58.200000000, 13.6039, -35.3266
582, 58.300000000, 13.5542, -35.3206
583, 58.400000000, 13.5061, -35.3069
584, 58.500000000, 13.4565, -35.301
585, 58.600000000, 13.4065, -35.3028
586, 58.700000000, 13.3575, -35.3124
587, 58.800000000, 13.3075, -35.3143
588, 58.900000000, 13.2579, -35.3083
589, 59.000000000, 13.2079, -35.3101
590, 59.100000000, 13.1583, -35.3041
591, 59.200000000, 13.1083, -35.306
592, 59.300000000, 13.0592, -35.3156
593, 59.400000000, 13.0093, -35.3175
594, 59.500000000, 12.9596, -35.3115
595, 59.600000000, 12.9097, -35.3133
596, 59.700000000, 12.8606, -35.323
597, 59.800000000, 12.8106, -35.3248
598, 59.900000000, 12.761, -35.3188
599, 60.000000000, 12.711, -35.3207
600, 60.100000000, 12.6614, -35.3147
601, 60.200000000, 12.6114, -35.3165
602, 60.300000000, 12.5618, -35.3105
603, 60.400000000, 12.5118, -35.3124
604, 60.500000000, 12.4628, -35.322
605, 60.600000000, 12.4128, -35.3239
606, 60.700000000, 12.3631, -35.3179
607, 60.800000000, 12.3132, -35.3197
608, 60.900000000, 12.2635, -35.3137
609, 61.000000000, 12.2136, -35.3156
610, 61.100000000, 12.1639, -35.3096
611, 61.200000000, 12.114, -35.3114
612, 61.300000000, 12.0643, -35.3054
613, 61.400000000, 12.0144, -35.3073
614, 61.500000000, 11.9647, -35.3013
615, 61.600000000, 11.9166, -35.2876
616, 61.700000000, 11.867, -35.2816
617, 61.800000000, 11.817, -35.2835
618, 61.900000000, 11.768, -35.2931
619, 62.000000000, 11.718, -35.2949
620, 62.100000000, 11.6684, -35.2889
621, 62.200000000, 11.6184, -35.2908
622, 62.300000000, 11.5693, -35.3004
623, 62.400000000, 11.5194, -35.3023
624, 62.500000000, 11.4697, -35.2963
625, 62.600000000, 11.4198, -35.2981
626, 62.700000000, 11.3701, -35.2921
627, 62.800000000, 11.3202, -35.294
628, 62.900000000, 11.2711, -35.3036
629, 63.000000000, 11.2211, -35.3055
630, 63.100000000, 11.1721, -35.3151
631, 63.200000000, 11.1221, -35.317
632, 63.300000000, 11.073, -35.3266
633, 63.400000000, 11.0231, -35.3284
634, 63.500000000, 10.974, -35.3381
635, 63.600000000, 10.924, -35.3399
636, 63.700000000, 10.8744, -35.3339
637, 63.800000000, 10.8244, -35.3358
638, 63.900000000, 10.7748, -35.3298
639, 64.000000000, 10.7248, -35.3316
640, 64.100000000, 10.6758, -35.3413
641, 64.200000000, 10.6258, -35.3431
642, 64.300000000, 10.5762, -35.3371
643, 64.400000000, 10.5262, -35.339
644, 64.500000000, 10.4766, -35.333
645, 64.600000000, 10.4266, -35.3348
646, 64.700000000, 10.377, -35.3288
647, 64.800000000, 10.327, -35.3307
648, 64.900000000, 10.2773, -35.3247
649, 65.000000000, 10.2274, -35.3265
650, 65.100000000, 10.1777, -35.3205
651, 65.200000000, 10.1278, -35.3224
652, 65.300000000, 10.0781, -35.3164
653, 65.400000000, 10.0282, -35.3182
654, 65.500000000, 9.97853, -35.3122
655, 65.600000000, 9.92857, -35.3141
656, 65.700000000, 9.87893, -35.3081
657, 65.800000000, 9.82896, -35.3099
658, 65.900000000, 9.77932, -35.304
659, 66.000000000, 9.72936, -35.3058
660, 66.100000000, 9.67972, -35.2998
661, 66.200000000, 9.62975, -35.3017
662, 66.300000000, 9.58011, -35.2957
663, 66.400000000, 9.53015, -35.2975
664, 66.500000000, 9.48051, -35.2915
665, 66.600000000, 9.43054, -35.2934
666, 66.700000000, 9.3809, -35.2874
667, 66.800000000, 9.33093, -35.2892
668, 66.900000000, 9.28129, -35.2832
669, 67.000000000, 9.23133, -35.2851
670, 67.100000000, 9.18169, -35.2791
671, 67.200000000, 9.13172, -35.2809
672, 67.300000000, 9.08208, -35.2749
673, 67.400000000, 9.03399, -35.2612
674, 67.500000000, 8.98435, -35.2552
675, 67.600000000, 8.93626, -35.2416
676, 67.700000000, 8.88662, -35.2356
677, 67.800000000, 8.83853, -35.2219
678, 67.900000000, 8.78889, -35.2159
679, 68.000000000, 8.7408, -35.2022
680, 68.100000000, 8.69116, -35.1962
681, 68.200000000, 8.64307, -35.1825
682, 68.300000000, 8.59745, -35.1621
683, 68.400000000, 8.54919, -35.149
684, 68.500000000, 8.50316, -35.1295
685, 68.600000000, 8.45897, -35.1061
686, 68.700000000, 8.41167, -35.0899
687, 68.800000000, 8.36685, -35.0677
688, 68.900000000, 8.32554, -35.0395
689, 69.000000000, 8.28034, -35.0182
690, 69.100000000, 8.23789, -34.9917
691, 69.200000000, 8.19816, -34.9614
692, 69.300000000, 8.15771, -34.932
693, 69.400000000, 8.11985, -34.8993
694, 69.500000000, 8.08092, -34.868
695, 69.600000000, 8.04452, -34.8337
696, 69.700000000, 8.00869, -34.7988
697, 69.800000000, 7.97389, -34.7629
698, 69.900000000, 7.94001, -34.7261
699, 70.000000000, 7.90809, -34.6877
700, 70.100000000, 7.87602, -34.6493
701, 70.200000000, 7.84624, -34.6091
702, 70.300000000, 7.81685, -34.5687
703, 70.400000000, 7.78945, -34.5269
704, 70.500000000, 7.76253, -34.4847
705, 70.600000000, 7.73735, -34.4415
706, 70.700000000, 7.71342, -34.3976
707, 70.800000000, 7.69034, -34.3533
708, 70.900000000, 7.66888, -34.3081
709, 71.000000000, 7.64863, -34.2624
710, 71.100000000, 7.62956, -34.2162
711, 71.200000000, 7.61185, -34.1694
712, 71.300000000, 7.59511, -34.1223
713, 71.400000000, 7.57927, -34.0749
714, 71.500000000, 7.56416, -34.0272
715, 71.600000000, 7.54956, -33.9794
716, 71.700000000, 7.53542, -33.9314
717, 71.800000000, 7.52161, -33.8834
718, 71.900000000, 7.50807, -33.8352
719, 72.000000000, 7.49475, -33.787
720, 72.100000000, 7.48163, -33.7388
721, 72.200000000, 7.46866, -33.6905
722, 72.300000000, 7.45584, -33.6422
723, 72.400000000, 7.44316, -33.5938
724, 72.500000000, 7.43055, -33.5454
725, 72.600000000, 7.4181, -33.497
726, 72.700000000, 7.40574, -33.4486
727, 72.800000000, 7.39354, -33.4001
728, 72.900000000, 7.38151, -33.3515
729, 73.000000000, 7.36964, -33.303
730, 73.100000000, 7.35792, -33.2544
731, 73.200000000, 7.34631, -33.2057
732, 73.300000000, 7.33455, -33.1571
733, 73.400000000, 7.32268, -33.1086
734, 73.500000000, 7.31073, -33.06
735, 73.600000000, 7.2987, -33.0115
736, 73.700000000, 7.28661, -32.963
737, 73.800000000, 7.27448, -32.9145
738, 73.900000000, 7.26244, -32.8659
739, 74.000000000, 7.25044, -32.8174
740, 74.100000000, 7.2384, -32.7689
741, 74.200000000, 7.22632, -32.7203
742, 74.300000000, 7.21427, -32.6718
743, 74.400000000, 7.20228, -32.6233
744, 74.500000000, 7.19043, -32.5747
745, 74.600000000, 7.17871, -32.5261
746, 74.700000000, 7.16711, -32.4775
747, 74.800000000, 7.1557, -32.4288
748, 74.900000000, 7.14452, -32.38
749, 75.000000000, 7.13355, -32.3313
750, 75.100000000, 7.1228, -32.2824
751, 75.200000000, 7.11228, -32.2335
752, 75.300000000, 7.10204, -32.1846
753, 75.400000000, 7.09216, -32.1356
754, 75.500000000, 7.08268, -32.0865
755, 75.600000000, 7.07359, -32.0373
756, 75.700000000, 7.06482, -31.9881
757, 75.800000000, 7.0564, -31.9388
758, 75.900000000, 7.04836, -31.8895
759, 76.000000000, 7.04068, -31.8401
760, 76.100000000, 7.03336, -31.7906
761, 76.200000000, 7.02643, -31.7411
762, 76.300000000, 7.01984, -31.6915
763, 76.400000000, 7.01357, -31.6419
764, 76.500000000, 7.0077, -31.5923
765, 76.600000000, 7.00225, -31.5426
766, 76.700000000, 6.99713, -31.4928
767, 76.800000000, 6.99236, -31.4431
768, 76.900000000, 6.98798, -31.3932
769, 77.000000000, 6.98404, -31.3434
770, 77.100000000, 6.98051, -31.2935
771, 77.200000000, 6.97736, -31.2436
772, 77.300000000, 6.97453, -31.1937
773, 77.400000000, 6.97207, -31.1438
774, 77.500000000, 6.96999, -31.0938
775, 77.600000000, 6.96826, -31.0438
776, 77.700000000, 6.967, -30.9939
777, 77.800000000, 6.96618, -30.9439
778, 77.900000000, 6.96569, -30.8939
779, 78.000000000, 6.96556, -30.8439
780, 78.100000000, 6.96586, -30.7939
781, 78.200000000, 6.9665, -30.7439
782, 78.300000000, 6.96754, -30.6939
783, 78.400000000, 6.96895, -30.6439
784, 78.500000000, 6.97071, -30.5939
785, 78.600000000, 6.97283, -30.544
786, 78.700000000, 6.97533, -30.494
787, 78.800000000, 6.97826, -30.4441
788, 78.900000000, 6.98156, -30.3942
789, 79.000000000, 6.98519, -30.3444
790, 79.100000000, 6.98922, -30.2945
791, 79.200000000, 6.99367, -30.2447
792, 79.300000000, 6.99846, -30.195
793, 79.400000000, 7.00355, -30.1452
794, 79.500000000, 7.00907, -30.0955
795, 79.600000000, 7.01495, -30.0459
796, 79.700000000, 7.02114, -29.9963
797, 79.800000000, 7.02765, -29.9467
798, 79.900000000, 7.0344, -29.8971
799, 80.000000000, 7.0414, -29.8476
800, 80.100000000, 7.04861, -29.7982
801, 80.200000000, 7.05599, -29.7487
802, 80.300000000, 7.06351, -29.6993
803, 80.400000000, 7.07118, -29.6499
804, 80.500000000, 7.07898, -29.6005
805, 80.600000000, 7.08689, -29.5511
806, 80.700000000, 7.09489, -29.5017
807, 80.800000000, 7.10298, -29.4524
808, 80.900000000, 7.11114, -29.4031
809, 81.000000000, 7.11936, -29.3538
810, 81.100000000, 7.12764, -29.3044
811, 81.200000000, 7.13596, -29.2551
812, 81.300000000, 7.14433, -29.2058
813, 81.400000000, 7.15273, -29.1566
814, 81.500000000, 7.16116, -29.1073
815, 81.600000000, 7.16962, -29.058
816, 81.700000000, 7.17811, -29.0087
817, 81.800000000, 7.18663, -28.9595
818, 81.900000000, 7.19517, -28.9102
819, 82.000000000, 7.20372, -28.8609
820, 82.100000000, 7.2123, -28.8117
821, 82.200000000, 7.22088, -28.7624
822, 82.300000000, 7.22948, -28.7132
823, 82.400000000, 7.23809, -28.6639
824, 82.500000000, 7.24671, -28.6146
825, 82.600000000, 7.25534, -28.5654
826, 82.700000000, 7.26397, -28.5161
827, 82.800000000, 7.27261, -28.4669
828, 82.900000000, 7.28125, -28.4177
829, 83.000000000, 7.2899, -28.3684
830, 83.100000000, 7.29855, -28.3192
831, 83.200000000, 7.30721, -28.2699
832, 83.300000000, 7.31587, -28.2207
833, 83.400000000, 7.32453, -28.1714
834, 83.500000000, 7.3332, -28.1222
835, 83.600000000, 7.34187, -28.0729
836, 83.700000000, 7.35053, -28.0237
837, 83.800000000, 7.35921, -27.9745
838, 83.900000000, 7.36788, -27.9252
839, 84.000000000, 7.37655, -27.876
840, 84.100000000, 7.38523, -27.8267
841, 84.200000000, 7.3939, -27.7775
842, 84.300000000, 7.40258, -27.7282
843, 84.400000000, 7.41126, -27.679
844, 84.500000000, 7.41994, -27.6298
845, 84.600000000, 7.42862, -27.5805
846, 84.700000000, 7.4373, -27.5313
847, 84.800000000, 7.44598, -27.482
848, 84.900000000, 7.45466, -27.4328
849, 85.000000000, 7.46334, -27.3836
850, 85.100000000, 7.47202, -27.3343
851, 85.200000000, 7.4807, -27.2851
852, 85.300000000, 7.48938, -27.2358
853, 85.400000000, 7.49807, -27.1866
854, 85.500000000, 7.50675, -27.1374
855, 85.600000000, 7.51543, -27.0881
856, 85.700000000, 7.52411, -27.0389
857, 85.800000000, 7.5328, -26.9896
858, 85.900000000, 7.54148, -26.9404
859, 86.000000000, 7.55016, -26.8912
860, 86.100000000, 7.55885, -26.8419
861, 86.200000000, 7.56753, -26.7927
862, 86.300000000, 7.57621, -26.7434
863, 86.400000000, 7.5849, -26.6942
864, 86.500000000, 7.59358, -26.645
865, 86.600000000, 7.60226, -26.5957
866, 86.700000000, 7.61095, -26.5465
867, 86.800000000, 7.61963, -26.4972
868, 86.900000000, 7.62831, -26.448
869, 87.000000000, 7.637, -26.3988
870, 87.100000000, 7.64568, -26.3495
871, 87.200000000, 7.65437, -26.3003
872, 87.300000000, 7.66305, -26.251
873, 87.400000000, 7.67173, -26.2018
874, 87.500000000, 7.68042, -26.1526
875, 87.600000000, 7.6891, -26.1033
876, 87.700000000, 7.69779, -26.0541
877, 87.800000000, 7.70647, -26.0048
878, 87.900000000, 7.71515, -25.9556
879, 88.000000000, 7.72384, -25.9064
880, 88.100000000, 7.73252, -25.8571
881, 88.200000000, 7.7412, -25.8079
882, 88.300000000, 7.74989, -25.7586
883, 88.400000000, 7.75857, -25.7094
884, 88.500000000, 7.76726, -25.6602
885, 88.600000000, 7.77594, -25.6109
886, 88.700000000, 7.78462, -25.5617
887, 88.800000000, 7.79331, -25.5124
888, 88.900000000, 7.80199, -25.4632
889, 89.000000000, 7.81068, -25.414
890, 89.100000000, 7.81936, -25.3647
891, 89.200000000, 7.82804, -25.3155
892, 89.300000000, 7.83673, -25.2662
893, 89.400000000, 7.84541, -25.217
894, 89.500000000, 7.8541, -25.1678
895, 89.600000000, 7.86278, -25.1185
896, 89.700000000, 7.87146, -25.0693
897, 89.800000000, 7.88015, -25.02
898, 89.900000000, 7.88883, -24.9708
899, 90.000000000, 7.89752, -24.9216
900, 90.100000000, 7.9062, -24.8723
901, 90.200000000, 7.91488, -24.8231
902, 90.300000000, 7.92357, -24.7738
903, 90.400000000, 7.93225, -24.7246
904, 90.500000000, 7.94094, -24.6754
905, 90.600000000, 7.94962, -24.6261
906, 90.700000000, 7.9583, -24.5769
907, 90.800000000, 7.96699, -24.5276
908, 90.900000000, 7.97567, -24.4784
909, 91.000000000, 7.98436, -24.4292
910, 91.100000000, 7.99304, -24.3799
911, 91.200000000, 8.00172, -24.3307
912, 91.300000000, 8.01041, -24.2814
913, 91.400000000, 8.01909, -24.2322
914, 91.500000000, 8.02778, -24.183
915, 91.600000000, 8.03646, -24.1337
916, 91.700000000, 8.04514, -24.0845
917, 91.800000000, 8.05383, -24.0352
918, 91.900000000, 8.06251, -23.986
919, 92.000000000, 8.0712, -23.9368
920, 92.100000000, 8.07988, -23.8875
921, 92.200000000, 8.08856, -23.8383
922, 92.300000000, 8.09725, -23.789
923, 92.400000000, 8.10593, -23.7398
924, 92.500000000, 8.11462, -23.6906
925, 92.600000000, 8.1233, -23.6413
