Sequence, time(s), pose_x(m), pose_y(m)
93, 9.400000000, 49.371, -43.182
96, 9.700000000, 49.3651, -43.2317
97, 9.800000000, 49.3516, -43.2798
98, 9.900000000, 49.3307, -43.3252
99, 10.000000000, 49.3029, -43.3668
100, 10.100000000, 49.269, -43.4035
101, 10.200000000, 49.2298, -43.4345
102, 10.300000000, 49.1861, -43.459
103, 10.400000000, 49.1392, -43.4763
104, 10.500000000, 49.0902, -43.4861
105, 10.600000000, 49.0403, -43.488
106, 10.700000000, 48.9906, -43.4822
107, 10.800000000, 48.9425, -43.4687
108, 10.900000000, 48.8953, -43.4521
109, 11.000000000, 48.8489, -43.4335
110, 11.100000000, 48.8032, -43.4132
111, 11.200000000, 48.7582, -43.3914
112, 11.300000000, 48.7138, -43.3683
113, 11.400000000, 48.6701, -43.3441
114, 11.500000000, 48.6268, -43.3191
115, 11.600000000, 48.584, -43.2932
116, 11.700000000, 48.5416, -43.2667
117, 11.800000000, 48.4996, -43.2395
118, 11.900000000, 48.458, -43.2119
119, 12.000000000, 48.4166, -43.1838
120, 12.100000000, 48.3755, -43.1553
121, 12.200000000, 48.3346, -43.1265
122, 12.300000000, 48.2939, -43.0975
123, 12.400000000, 48.2534, -43.0682
124, 12.500000000, 48.2131, -43.0386
125, 12.600000000, 48.1729, -43.0089
126, 12.700000000, 48.1328, -42.9791
127, 12.800000000, 48.0928, -42.9491
128, 12.900000000, 48.0529, -42.9189
129, 13.000000000, 48.013, -42.8887
130, 13.100000000, 47.9733, -42.8584
131, 13.200000000, 47.9336, -42.828
132, 13.300000000, 47.8939, -42.7975
133, 13.400000000, 47.8543, -42.767
134, 13.500000000, 47.8148, -42.7364
135, 13.600000000, 47.7752, -42.7058
136, 13.700000000, 47.7357, -42.6752
137, 13.800000000, 47.6963, -42.6445
138, 13.900000000, 47.6568, -42.6138
139, 14.000000000, 47.6174, -42.583
140, 14.100000000, 47.578, -42.5523
141, 14.200000000, 47.5386, -42.5215
142, 14.300000000, 47.4992, -42.4907
143, 14.400000000, 47.4598, -42.4599
144, 14.500000000, 47.4204, -42.429
145, 14.600000000, 47.3811, -42.3982
146, 14.700000000, 47.3417, -42.3673
147, 14.800000000, 47.3024, -42.3365
148, 14.900000000, 47.263, -42.3056
149, 15.000000000, 47.2237, -42.2748
150, 15.100000000, 47.1844, -42.2439
151, 15.200000000, 47.145, -42.213
152, 15.300000000, 47.1057, -42.1821
153, 15.400000000, 47.0664, -42.1512
154, 15.500000000, 47.0271, -42.1204
155, 15.600000000, 46.9878, -42.0895
156, 15.700000000, 46.9485, -42.0586
157, 15.800000000, 46.9091, -42.0277
158, 15.900000000, 46.8698, -41.9968
159, 16.000000000, 46.8305, -41.9659
160, 16.100000000, 46.7912, -41.935
161, 16.200000000, 46.7519, -41.9041
162, 16.300000000, 46.7126, -41.8731
163, 16.400000000, 46.6734, -41.8421
164, 16.500000000, 46.6342, -41.811
165, 16.600000000, 46.5951, -41.7799
166, 16.700000000, 46.5561, -41.7486
167, 16.800000000, 46.5171, -41.7173
168, 16.900000000, 46.4782, -41.6859
169, 17.000000000, 46.4393, -41.6545
170, 17.100000000, 46.4005, -41.623
171, 17.200000000, 46.3618, -41.5914
172, 17.300000000, 46.323, -41.5598
173, 17.400000000, 46.2843, -41.5281
174, 17.500000000, 46.2457, -41.4964
175, 17.600000000, 46.207, -41.4646
176, 17.700000000, 46.1685, -41.4328
177, 17.800000000, 46.1299, -41.401
178, 17.900000000, 46.0913, -41.3692
179, 18.000000000, 46.0528, -41.3373
180, 18.100000000, 46.0143, -41.3054
181, 18.200000000, 45.9758, -41.2735
182, 18.300000000, 45.9374, -41.2416
183, 18.400000000, 45.8989, -41.2096
184, 18.500000000, 45.8605, -41.1776
185, 18.600000000, 45.822, -41.1456
186, 18.700000000, 45.7836, -41.1136
187, 18.800000000, 45.7452, -41.0816
188, 18.900000000, 45.7068, -41.0496
189, 19.000000000, 45.6685, -41.0175
190, 19.100000000, 45.6301, -40.9854
191, 19.200000000, 45.5918, -40.9533
192, 19.300000000, 45.5534, -40.9212
193, 19.400000000, 45.5151, -40.8891
194, 19.500000000, 45.4768, -40.857
195, 19.600000000, 45.4385, -40.8248
196, 19.700000000, 45.4002, -40.7927
197, 19.800000000, 45.3619, -40.7605
198, 19.900000000, 45.3237, -40.7283
199, 20.000000000, 45.2854, -40.6961
200, 20.100000000, 45.2472, -40.6639
201, 20.200000000, 45.209, -40.6317
202, 20.300000000, 45.1707, -40.5994
203, 20.400000000, 45.1325, -40.5672
204, 20.500000000, 45.0944, -40.5349
205, 20.600000000, 45.0562, -40.5026
206, 20.700000000, 45.0181, -40.4702
207, 20.800000000, 44.9799, -40.4379
208, 20.900000000, 44.9418, -40.4055
209, 21.000000000, 44.9037, -40.3732
210, 21.100000000, 44.8656, -40.3408
211, 21.200000000, 44.8275, -40.3084
212, 21.300000000, 44.7894, -40.276
213, 21.400000000, 44.7514, -40.2436
214, 21.500000000, 44.7134, -40.2111
215, 21.600000000, 44.6753, -40.1786
216, 21.700000000, 44.6373, -40.1461
217, 21.800000000, 44.5994, -40.1136
218, 21.900000000, 44.5614, -40.081
219, 22.000000000, 44.5235, -40.0484
220, 22.100000000, 44.4857, -40.0158
221, 22.200000000, 44.4478, -39.9831
222, 22.300000000, 44.41, -39.9504
223, 22.400000000, 44.3722, -39.9176
224, 22.500000000, 44.3345, -39.8848
225, 22.600000000, 44.2984, -39.8503
226, 22.700000000, 44.2681, -39.8105
227, 22.800000000, 44.2444, -39.7665
228, 22.900000000, 44.2279, -39.7193
229, 23.000000000, 44.2189, -39.6701
230, 23.100000000, 44.2178, -39.6201
231, 23.200000000, 44.2089, -39.5709
232, 23.300000000, 44.2077, -39.5209
233, 23.400000000, 44.1988, -39.4717
234, 23.500000000, 44.1858, -39.4234
235, 23.600000000, 44.1805, -39.3737
236, 23.700000000, 44.1716, -39.3245
237, 23.800000000, 44.1551, -39.2773
238, 23.900000000, 44.1462, -39.2281
239, 24.000000000, 44.134, -39.1796
240, 24.100000000, 44.1145, -39.1336
241, 24.200000000, 44.0879, -39.0912
242, 24.300000000, 44.0684, -39.0452
243, 24.400000000, 44.0506, -38.9985
244, 24.500000000, 44.0303, -38.9528
245, 24.600000000, 44.003, -38.9109
246, 24.700000000, 43.9826, -38.8652
247, 24.800000000, 43.9605, -38.8204
248, 24.900000000, 43.936, -38.7768
249, 25.000000000, 43.9093, -38.7345
250, 25.100000000, 43.8807, -38.6935
251, 25.200000000, 43.8462, -38.6574
252, 25.300000000, 43.8176, -38.6163
253, 25.400000000, 43.7885, -38.5757
254, 25.500000000, 43.7579, -38.5361
255, 25.600000000, 43.7261, -38.4976
256, 25.700000000, 43.6931, -38.4599
257, 25.800000000, 43.6593, -38.4231
258, 25.900000000, 43.6247, -38.3871
259, 26.000000000, 43.5894, -38.3517
260, 26.100000000, 43.5534, -38.3169
261, 26.200000000, 43.517, -38.2827
262, 26.300000000, 43.4801, -38.249
263, 26.400000000, 43.4427, -38.2157
264, 26.500000000, 43.405, -38.1829
265, 26.600000000, 43.367, -38.1503
266, 26.700000000, 43.3288, -38.1182
267, 26.800000000, 43.2903, -38.0862
268, 26.900000000, 43.2516, -38.0546
269, 27.000000000, 43.2124, -38.0235
270, 27.100000000, 43.1723, -37.9937
271, 27.200000000, 43.1311, -37.9653
272, 27.300000000, 43.0888, -37.9387
273, 27.400000000, 43.0454, -37.9139
274, 27.500000000, 43.001, -37.8909
275, 27.600000000, 42.9557, -37.8697
276, 27.700000000, 42.9096, -37.8503
277, 27.800000000, 42.8627, -37.8328
278, 27.900000000, 42.8153, -37.8171
279, 28.000000000, 42.7674, -37.8027
280, 28.100000000, 42.7192, -37.7896
281, 28.200000000, 42.6707, -37.7773
282, 28.300000000, 42.6221, -37.7657
283, 28.400000000, 42.5733, -37.7546
284, 28.500000000, 42.5244, -37.744
285, 28.600000000, 42.4755, -37.7338
286, 28.700000000, 42.4265, -37.7237
287, 28.800000000, 42.3775, -37.7137
288, 28.900000000, 42.3285, -37.7038
289, 29.000000000, 42.2795, -37.6941
290, 29.100000000, 42.2304, -37.6846
291, 29.200000000, 42.1813, -37.6752
292, 29.300000000, 42.1321, -37.666
293, 29.400000000, 42.083, -37.6569
294, 29.500000000, 42.0338, -37.6479
295, 29.600000000, 41.9846, -37.6391
296, 29.700000000, 41.9353, -37.6304
297, 29.800000000, 41.886, -37.6219
298, 29.900000000, 41.8368, -37.6135
299, 30.000000000, 41.7875, -37.6051
300, 30.100000000, 41.7382, -37.5968
301, 30.200000000, 41.6888, -37.5886
302, 30.300000000, 41.6395, -37.5806
303, 30.400000000, 41.5901, -37.5726
304, 30.500000000, 41.5408, -37.5646
305, 30.600000000, 41.4914, -37.5568
306, 30.700000000, 41.442, -37.549
307, 30.800000000, 41.3926, -37.5412
308, 30.900000000, 41.3432, -37.5335
309, 31.000000000, 41.2938, -37.5258
310, 31.100000000, 41.2444, -37.5181
311, 31.200000000, 41.195, -37.5106
312, 31.300000000, 41.1455, -37.503
313, 31.400000000, 41.0961, -37.4956
314, 31.500000000, 41.0466, -37.4883
315, 31.600000000, 40.9972, -37.4809
316, 31.700000000, 40.9477, -37.4736
317, 31.800000000, 40.8983, -37.4662
318, 31.900000000, 40.8488, -37.4589
319, 32.000000000, 40.7994, -37.4515
320, 32.100000000, 40.7499, -37.4442
321, 32.200000000, 40.7004, -37.437
322, 32.300000000, 40.6509, -37.4299
323, 32.400000000, 40.6014, -37.4227
324, 32.500000000, 40.5519, -37.4158
325, 32.600000000, 40.5024, -37.4091
326, 32.700000000, 40.4528, -37.4025
327, 32.800000000, 40.4032, -37.396
328, 32.900000000, 40.3536, -37.3896
329, 33.000000000, 40.304, -37.3833
330, 33.100000000, 40.2544, -37.3771
331, 33.200000000, 40.2048, -37.3709
332, 33.300000000, 40.1552, -37.3648
333, 33.400000000, 40.1056, -37.3588
334, 33.500000000, 40.0559, -37.3527
335, 33.600000000, 40.0063, -37.3467
336, 33.700000000, 39.9566, -37.3408
337, 33.800000000, 39.907, -37.3349
338, 33.900000000, 39.8573, -37.3291
339, 34.000000000, 39.8076, -37.3234
340, 34.100000000, 39.758, -37.3176
341, 34.200000000, 39.7083, -37.3118
342, 34.300000000, 39.6586, -37.3061
343, 34.400000000, 39.609, -37.3004
344, 34.500000000, 39.5593, -37.2947
345, 34.600000000, 39.5096, -37.289
346, 34.700000000, 39.4599, -37.2834
347, 34.800000000, 39.4103, -37.2778
348, 34.900000000, 39.3606, -37.2722
349, 35.000000000, 39.3109, -37.2666
350, 35.100000000, 39.2612, -37.261
351, 35.200000000, 39.2115, -37.2555
352, 35.300000000, 39.1618, -37.2499
353, 35.400000000, 39.1121, -37.2443
354, 35.500000000, 39.0625, -37.2385
355, 35.600000000, 39.0128, -37.2327
356, 35.700000000, 38.9631, -37.2269
357, 35.800000000, 38.9135, -37.2211
358, 35.900000000, 38.8638, -37.2152
359, 36.000000000, 38.8142, -37.2093
360, 36.100000000, 38.7645, -37.2035
361, 36.200000000, 38.7149, -37.1976
362, 36.300000000, 38.6652, -37.1916
363, 36.400000000, 38.6156, -37.1856
364, 36.500000000, 38.5659, -37.1797
365, 36.600000000, 38.5163, -37.1738
366, 36.700000000, 38.4666, -37.1679
367, 36.800000000, 38.417, -37.1621
368, 36.900000000, 38.3673, -37.1564
369, 37.000000000, 38.3176, -37.1509
370, 37.100000000, 38.2679, -37.1454
371, 37.200000000, 38.2182, -37.1399
372, 37.300000000, 38.1685, -37.1345
373, 37.400000000, 38.1188, -37.1291
374, 37.500000000, 38.0691, -37.1237
375, 37.600000000, 38.0194, -37.1183
376, 37.700000000, 37.9697, -37.113
377, 37.800000000, 37.9199, -37.1078
378, 37.900000000, 37.8702, -37.1025
379, 38.000000000, 37.8205, -37.0973
380, 38.100000000, 37.7708, -37.0921
381, 38.200000000, 37.721, -37.0869
382, 38.300000000, 37.6713, -37.0818
383, 38.400000000, 37.6215, -37.0767
384, 38.500000000, 37.5718, -37.0717
385, 38.600000000, 37.522, -37.0667
386, 38.700000000, 37.4723, -37.0617
387, 38.800000000, 37.4226, -37.0567
388, 38.900000000, 37.3728, -37.0517
389, 39.000000000, 37.3231, -37.0467
390, 39.100000000, 37.2733, -37.0417
391, 39.200000000, 37.2236, -37.0367
392, 39.300000000, 37.1738, -37.0317
393, 39.400000000, 37.124, -37.0269
394, 39.500000000, 37.0743, -37.0222
395, 39.600000000, 37.0245, -37.0175
396, 39.700000000, 36.9747, -37.013
397, 39.800000000, 36.9249, -37.0087
398, 39.900000000, 36.875, -37.0045
399, 40.000000000, 36.8252, -37.0003
400, 40.100000000, 36.7754, -36.9962
401, 40.200000000, 36.7256, -36.9921
402, 40.300000000, 36.6757, -36.988
403, 40.400000000, 36.6259, -36.9839
404, 40.500000000, 36.5761, -36.9799
405, 40.600000000, 36.5262, -36.9757
406, 40.700000000, 36.4764, -36.9716
407, 40.800000000, 36.4266, -36.9675
408, 40.900000000, 36.3767, -36.9635
409, 41.000000000, 36.3269, -36.9595
410, 41.100000000, 36.277, -36.9555
411, 41.200000000, 36.2272, -36.9515
412, 41.300000000, 36.1774, -36.9474
413, 41.400000000, 36.1275, -36.9433
414, 41.500000000, 36.0777, -36.9392
415, 41.600000000, 36.0279, -36.9351
416, 41.700000000, 35.9781, -36.931
417, 41.800000000, 35.9282, -36.9268
418, 41.900000000, 35.8784, -36.9227
419, 42.000000000, 35.8286, -36.9186
420, 42.100000000, 35.7787, -36.9144
421, 42.200000000, 35.7289, -36.9103
422, 42.300000000, 35.6791, -36.9061
423, 42.400000000, 35.6293, -36.902
424, 42.500000000, 35.5794, -36.8978
425, 42.600000000, 35.5296, -36.8936
426, 42.700000000, 35.4798, -36.8893
427, 42.800000000, 35.43, -36.8851
428, 42.900000000, 35.3801, -36.8809
429, 43.000000000, 35.3303, -36.8766
430, 43.100000000, 35.2805, -36.8722
431, 43.200000000, 35.2307, -36.8678
432, 43.300000000, 35.1809, -36.8635
433, 43.400000000, 35.1311, -36.8591
434, 43.500000000, 35.0813, -36.8548
435, 43.600000000, 35.0315, -36.8504
436, 43.700000000, 34.9817, -36.8461
437, 43.800000000, 34.9319, -36.8417
438, 43.900000000, 34.882, -36.8374
439, 44.000000000, 34.8322, -36.8331
440, 44.100000000, 34.7824, -36.8288
441, 44.200000000, 34.7326, -36.8246
442, 44.300000000, 34.6828, -36.8203
443, 44.400000000, 34.6329, -36.8161
444, 44.500000000, 34.5831, -36.812
445, 44.600000000, 34.5333, -36.8079
446, 44.700000000, 34.4835, -36.8037
447, 44.800000000, 34.4336, -36.7996
448, 44.900000000, 34.3838, -36.7955
449, 45.000000000, 34.334, -36.7913
450, 45.100000000, 34.2841, -36.7871
451, 45.200000000, 34.2343, -36.783
452, 45.300000000, 34.1845, -36.7788
453, 45.400000000, 34.1347, -36.7745
454, 45.500000000, 34.0849, -36.7701
455, 45.600000000, 34.0351, -36.7657
456, 45.700000000, 33.9853, -36.7613
457, 45.800000000, 33.9355, -36.7568
458, 45.900000000, 33.8857, -36.7522
459, 46.000000000, 33.8359, -36.7476
460, 46.100000000, 33.7861, -36.7429
461, 46.200000000, 33.7363, -36.7383
462, 46.300000000, 33.6865, -36.7338
463, 46.400000000, 33.6367, -36.7292
464, 46.500000000, 33.5869, -36.7247
465, 46.600000000, 33.5372, -36.7202
466, 46.700000000, 33.4874, -36.7156
467, 46.800000000, 33.4376, -36.7111
468, 46.900000000, 33.3878, -36.7064
469, 47.000000000, 33.338, -36.7015
470, 47.100000000, 33.2883, -36.6965
471, 47.200000000, 33.2386, -36.6912
472, 47.300000000, 33.1889, -36.6858
473, 47.400000000, 33.1392, -36.68
474, 47.500000000, 33.0895, -36.6741
475, 47.600000000, 33.0399, -36.6679
476, 47.700000000, 32.9903, -36.6615
477, 47.800000000, 32.9408, -36.6548
478, 47.900000000, 32.8913, -36.6479
479, 48.000000000, 32.8418, -36.6407
480, 48.100000000, 32.7923, -36.6333
481, 48.200000000, 32.7429, -36.6257
482, 48.300000000, 32.6936, -36.6177
483, 48.400000000, 32.6442, -36.6096
484, 48.500000000, 32.5949, -36.6011
485, 48.600000000, 32.5457, -36.5924
486, 48.700000000, 32.4965, -36.5835
487, 48.800000000, 32.4474, -36.5743
488, 48.900000000, 32.3982, -36.5649
489, 49.000000000, 32.3492, -36.5553
490, 49.100000000, 32.3002, -36.5454
491, 49.200000000, 32.2512, -36.5352
492, 49.300000000, 32.2023, -36.5248
493, 49.400000000, 32.1535, -36.5141
494, 49.500000000, 32.1047, -36.5032
495, 49.600000000, 32.056, -36.4919
496, 49.700000000, 32.0073, -36.4804
497, 49.800000000, 31.9587, -36.4685
498, 49.900000000, 31.9102, -36.4564
499, 50.000000000, 31.8618, -36.4439
500, 50.100000000, 31.8135, -36.4311
501, 50.200000000, 31.7652, -36.418
502, 50.300000000, 31.7171, -36.4046
503, 50.400000000, 31.669, -36.3909
504, 50.500000000, 31.621, -36.3769
505, 50.600000000, 31.5731, -36.3625
506, 50.700000000, 31.5253, -36.3479
507, 50.800000000, 31.4776, -36.3329
508, 50.900000000, 31.43, -36.3175
509, 51.000000000, 31.3825, -36.3019
510, 51.100000000, 31.3351, -36.2859
511, 51.200000000, 31.2879, -36.2696
512, 51.300000000, 31.2407, -36.2531
513, 51.400000000, 31.1936, -36.2362
514, 51.500000000, 31.1467, -36.219
515, 51.600000000, 31.0999, -36.2014
516, 51.700000000, 31.0532, -36.1835
517, 51.800000000, 31.0066, -36.1653
518, 51.900000000, 30.9602, -36.1468
519, 52.000000000, 30.9139, -36.1279
520, 52.100000000, 30.8677, -36.1087
521, 52.200000000, 30.8217, -36.0891
522, 52.300000000, 30.7758, -36.0692
523, 52.400000000, 30.7301, -36.049
524, 52.500000000, 30.6845, -36.0284
525, 52.600000000, 30.6391, -36.0074
526, 52.700000000, 30.5939, -35.9861
527, 52.800000000, 30.5488, -35.9645
528, 52.900000000, 30.504, -35.9424
529, 53.000000000, 30.4593, -35.92
530, 53.100000000, 30.4147, -35.8973
531, 53.200000000, 30.3704, -35.8742
532, 53.300000000, 30.3263, -35.8507
533, 53.400000000, 30.2823, -35.8268
534, 53.500000000, 30.2386, -35.8026
535, 53.600000000, 30.195, -35.778
536, 53.700000000, 30.1517, -35.753
537, 53.800000000, 30.1086, -35.7277
538, 53.900000000, 30.0657, -35.7021
539, 54.000000000, 30.023, -35.6761
540, 54.100000000, 29.9804, -35.6499
541, 54.200000000, 29.9381, -35.6233
542, 54.300000000, 29.896, -35.5963
543, 54.400000000, 29.8541, -35.5689
544, 54.500000000, 29.8125, -35.5412
545, 54.600000000, 29.7712, -35.5131
546, 54.700000000, 29.73, -35.4847
547, 54.800000000, 29.6891, -35.456
548, 54.900000000, 29.6484, -35.427
549, 55.000000000, 29.6079, -35.3975
550, 55.100000000, 29.5678, -35.3677
551, 55.200000000, 29.5279, -35.3376
552, 55.300000000, 29.4883, -35.307
553, 55.400000000, 29.4491, -35.276
554, 55.500000000, 29.4101, -35.2447
555, 55.600000000, 29.3714, -35.213
556, 55.700000000, 29.3331, -35.1809
557, 55.800000000, 29.2951, -35.1484
558, 55.900000000, 29.2575, -35.1155
559, 56.000000000, 29.2201, -35.0823
560, 56.100000000, 29.1831, -35.0487
561, 56.200000000, 29.1464, -35.0147
562, 56.300000000, 29.11, -34.9804
563, 56.400000000, 29.074, -34.9457
564, 56.500000000, 29.0384, -34.9106
565, 56.600000000, 29.0032, -34.8751
566, 56.700000000, 28.9682, -34.8394
567, 56.800000000, 28.9336, -34.8033
568, 56.900000000, 28.8993, -34.7669
569, 57.000000000, 28.8653, -34.7303
570, 57.100000000, 28.8316, -34.6933
571, 57.200000000, 28.7982, -34.6561
572, 57.300000000, 28.7652, -34.6185
573, 57.400000000, 28.7326, -34.5807
574, 57.500000000, 28.7003, -34.5425
575, 57.600000000, 28.6684, -34.504
576, 57.700000000, 28.6369, -34.4651
577, 57.800000000, 28.6057, -34.426
578, 57.900000000, 28.575, -34.3866
579, 58.000000000, 28.5446, -34.3469
580, 58.100000000, 28.5145, -34.307
581, 58.200000000, 28.4847, -34.2668
582, 58.300000000, 28.4552, -34.2264
583, 58.400000000, 28.4258, -34.186
584, 58.500000000, 28.3966, -34.1454
585, 58.600000000, 28.3675, -34.1048
586, 58.700000000, 28.3385, -34.064
587, 58.800000000, 28.3096, -34.0232
588, 58.900000000, 28.2809, -33.9823
589, 59.000000000, 28.2523, -33.9413
590, 59.100000000, 28.2249, -33.8995
591, 59.200000000, 28.2043, -33.8539
592, 59.300000000, 28.1911, -33.8057
593, 59.400000000, 28.1857, -33.756
594, 59.500000000, 28.188, -33.706
595, 59.600000000, 28.1982, -33.6571
596, 59.700000000, 28.2159, -33.6103
597, 59.800000000, 28.2265, -33.5614
598, 59.900000000, 28.2295, -33.5115
599, 60.000000000, 28.2401, -33.4627
600, 60.100000000, 28.2431, -33.4128
601, 60.200000000, 28.2537, -33.3639
602, 60.300000000, 28.2582, -33.3141
603, 60.400000000, 28.2547, -33.2642
604, 60.500000000, 28.2591, -33.2144
605, 60.600000000, 28.2557, -33.1646
606, 60.700000000, 28.2601, -33.1148
607, 60.800000000, 28.2597, -33.0648
608, 60.900000000, 28.267, -33.0153
609, 61.000000000, 28.2689, -32.9653
610, 61.100000000, 28.263, -32.9157
611, 61.200000000, 28.2493, -32.8676
612, 61.300000000, 28.2434, -32.8179
613, 61.400000000, 28.2452, -32.768
614, 61.500000000, 28.2431, -32.718
615, 61.600000000, 28.2365, -32.6685
616, 61.700000000, 28.2378, -32.6185
617, 61.800000000, 28.2355, -32.5685
618, 61.900000000, 28.2291, -32.5189
619, 62.000000000, 28.2201, -32.4698
620, 62.100000000, 28.21, -32.4208
621, 62.200000000, 28.1995, -32.3719
622, 62.300000000, 28.189, -32.323
623, 62.400000000, 28.1787, -32.2741
624, 62.500000000, 28.1684, -32.2252
625, 62.600000000, 28.1582, -32.1762
626, 62.700000000, 28.148, -32.1273
627, 62.800000000, 28.1378, -32.0783
628, 62.900000000, 28.1277, -32.0293
629, 63.000000000, 28.1177, -31.9804
630, 63.100000000, 28.1076, -31.9314
631, 63.200000000, 28.0975, -31.8824
632, 63.300000000, 28.0874, -31.8335
633, 63.400000000, 28.0772, -31.7845
634, 63.500000000, 28.0667, -31.7356
635, 63.600000000, 28.056, -31.6868
636, 63.700000000, 28.0451, -31.638
