Sequence, time(s), pose_x(m), pose_y(m)
103, 10.400000000, 27.412, -44.262
106, 10.700000000, 27.462, -44.2637
107, 10.800000000, 27.5116, -44.2576
108, 10.900000000, 27.5597, -44.2439
109, 11.000000000, 27.605, -44.2227
110, 11.100000000, 27.6464, -44.1948
111, 11.200000000, 27.683, -44.1607
112, 11.300000000, 27.7138, -44.1213
113, 11.400000000, 27.738, -44.0775
114, 11.500000000, 27.7551, -44.0305
115, 11.600000000, 27.7656, -43.9817
116, 11.700000000, 27.7701, -43.9319
117, 11.800000000, 27.7693, -43.8819
118, 11.900000000, 27.764, -43.8321
119, 12.000000000, 27.7547, -43.783
120, 12.100000000, 27.7421, -43.7346
121, 12.200000000, 27.7267, -43.6871
122, 12.300000000, 27.7089, -43.6403
123, 12.400000000, 27.6894, -43.5943
124, 12.500000000, 27.6684, -43.5489
125, 12.600000000, 27.6463, -43.5041
126, 12.700000000, 27.6234, -43.4596
127, 12.800000000, 27.5998, -43.4155
128, 12.900000000, 27.5757, -43.3717
129, 13.000000000, 27.5511, -43.3282
130, 13.100000000, 27.5262, -43.2848
131, 13.200000000, 27.501, -43.2416
132, 13.300000000, 27.4756, -43.1986
133, 13.400000000, 27.4499, -43.1557
134, 13.500000000, 27.4241, -43.1129
135, 13.600000000, 27.3981, -43.0702
136, 13.700000000, 27.3719, -43.0276
137, 13.800000000, 27.3456, -42.985
138, 13.900000000, 27.3192, -42.9426
139, 14.000000000, 27.2927, -42.9002
140, 14.100000000, 27.2661, -42.8578
141, 14.200000000, 27.2395, -42.8155
142, 14.300000000, 27.2127, -42.7733
143, 14.400000000, 27.1859, -42.7311
144, 14.500000000, 27.1591, -42.6889
145, 14.600000000, 27.1322, -42.6468
146, 14.700000000, 27.1052, -42.6047
147, 14.800000000, 27.0782, -42.5626
148, 14.900000000, 27.0511, -42.5206
149, 15.000000000, 27.024, -42.4786
150, 15.100000000, 26.9968, -42.4366
151, 15.200000000, 26.9696, -42.3946
152, 15.300000000, 26.9424, -42.3527
153, 15.400000000, 26.9151, -42.3108
154, 15.500000000, 26.8877, -42.2689
155, 15.600000000, 26.8604, -42.2271
156, 15.700000000, 26.8329, -42.1853
157, 15.800000000, 26.8055, -42.1435
158, 15.900000000, 26.778, -42.1017
159, 16.000000000, 26.7504, -42.06
160, 16.100000000, 26.7229, -42.0183
161, 16.200000000, 26.6952, -41.9766
162, 16.300000000, 26.6676, -41.935
163, 16.400000000, 26.6399, -41.8933
164, 16.500000000, 26.6121, -41.8517
165, 16.600000000, 26.5844, -41.8102
166, 16.700000000, 26.5565, -41.7686
167, 16.800000000, 26.5286, -41.7271
168, 16.900000000, 26.5007, -41.6856
169, 17.000000000, 26.4728, -41.6442
170, 17.100000000, 26.4449, -41.6027
171, 17.200000000, 26.4169, -41.5613
172, 17.300000000, 26.3888, -41.5199
173, 17.400000000, 26.3608, -41.4785
174, 17.500000000, 26.3312, -41.4382
175, 17.600000000, 26.2958, -41.4029
176, 17.700000000, 26.2552, -41.3737
177, 17.800000000, 26.2106, -41.3511
178, 17.900000000, 26.163, -41.3358
179, 18.000000000, 26.1136, -41.3282
180, 18.100000000, 26.0652, -41.3154
181, 18.200000000, 26.0155, -41.3104
182, 18.300000000, 25.9664, -41.3009
183, 18.400000000, 25.9194, -41.2838
184, 18.500000000, 25.8703, -41.2742
185, 18.600000000, 25.8222, -41.2608
186, 18.700000000, 25.7767, -41.2399
187, 18.800000000, 25.7309, -41.22
188, 18.900000000, 25.6853, -41.1995
189, 19.000000000, 25.6404, -41.1774
190, 19.100000000, 25.596, -41.1543
191, 19.200000000, 25.5527, -41.1294
192, 19.300000000, 25.5102, -41.1031
193, 19.400000000, 25.4683, -41.0758
194, 19.500000000, 25.427, -41.0476
195, 19.600000000, 25.3865, -41.0183
196, 19.700000000, 25.3468, -40.9879
197, 19.800000000, 25.308, -40.9563
198, 19.900000000, 25.2703, -40.9235
199, 20.000000000, 25.2333, -40.8898
200, 20.100000000, 25.1977, -40.8548
201, 20.200000000, 25.1631, -40.8186
202, 20.300000000, 25.1295, -40.7817
203, 20.400000000, 25.0968, -40.7439
204, 20.500000000, 25.0649, -40.7053
205, 20.600000000, 25.0338, -40.6662
206, 20.700000000, 25.0033, -40.6265
207, 20.800000000, 24.9735, -40.5864
208, 20.900000000, 24.9443, -40.5458
209, 21.000000000, 24.9156, -40.5049
210, 21.100000000, 24.8874, -40.4636
211, 21.200000000, 24.8597, -40.422
212, 21.300000000, 24.8324, -40.3801
213, 21.400000000, 24.8056, -40.3379
214, 21.500000000, 24.7791, -40.2954
215, 21.600000000, 24.753, -40.2528
216, 21.700000000, 24.7272, -40.21
217, 21.800000000, 24.7017, -40.167
218, 21.900000000, 24.6763, -40.1239
219, 22.000000000, 24.651, -40.0808
220, 22.100000000, 24.6258, -40.0376
221, 22.200000000, 24.6007, -39.9943
222, 22.300000000, 24.5756, -39.9511
223, 22.400000000, 24.5506, -39.9078
224, 22.500000000, 24.5256, -39.8645
225, 22.600000000, 24.5007, -39.8212
226, 22.700000000, 24.4758, -39.7778
227, 22.800000000, 24.4509, -39.7345
228, 22.900000000, 24.426, -39.6911
229, 23.000000000, 24.4011, -39.6477
230, 23.100000000, 24.3762, -39.6043
231, 23.200000000, 24.3513, -39.561
232, 23.300000000, 24.3264, -39.5176
233, 23.400000000, 24.3015, -39.4743
234, 23.500000000, 24.2766, -39.4309
235, 23.600000000, 24.2516, -39.3876
236, 23.700000000, 24.2267, -39.3442
237, 23.800000000, 24.2018, -39.3009
238, 23.900000000, 24.1768, -39.2576
239, 24.000000000, 24.1519, -39.2143
240, 24.100000000, 24.1267, -39.1711
241, 24.200000000, 24.1011, -39.1281
242, 24.300000000, 24.0753, -39.0853
243, 24.400000000, 24.049, -39.0428
244, 24.500000000, 24.0221, -39.0006
245, 24.600000000, 23.9947, -38.9588
246, 24.700000000, 23.9668, -38.9173
247, 24.800000000, 23.9384, -38.8762
248, 24.900000000, 23.9095, -38.8353
249, 25.000000000, 23.8803, -38.7947
250, 25.100000000, 23.8509, -38.7543
251, 25.200000000, 23.8212, -38.7141
252, 25.300000000, 23.7913, -38.674
253, 25.400000000, 23.7613, -38.634
254, 25.500000000, 23.7311, -38.5942
255, 25.600000000, 23.7007, -38.5544
256, 25.700000000, 23.6703, -38.5148
257, 25.800000000, 23.6397, -38.4752
258, 25.900000000, 23.6091, -38.4357
259, 26.000000000, 23.5784, -38.3962
260, 26.100000000, 23.5477, -38.3567
261, 26.200000000, 23.517, -38.3173
262, 26.300000000, 23.4861, -38.2779
263, 26.400000000, 23.4553, -38.2386
264, 26.500000000, 23.4243, -38.1994
265, 26.600000000, 23.3932, -38.1602
266, 26.700000000, 23.3619, -38.1212
267, 26.800000000, 23.3298, -38.0829
268, 26.900000000, 23.2958, -38.0463
269, 27.000000000, 23.2596, -38.0117
270, 27.100000000, 23.2214, -37.9794
271, 27.200000000, 23.1812, -37.9498
272, 27.300000000, 23.1392, -37.9226
273, 27.400000000, 23.0959, -37.8975
274, 27.500000000, 23.0517, -37.8743
275, 27.600000000, 23.0064, -37.853
276, 27.700000000, 22.9603, -37.8336
277, 27.800000000, 22.9134, -37.8163
278, 27.900000000, 22.866, -37.8006
279, 28.000000000, 22.8182, -37.7859
280, 28.100000000, 22.7702, -37.7717
281, 28.200000000, 22.7222, -37.7579
282, 28.300000000, 22.6741, -37.7443
283, 28.400000000, 22.6259, -37.7307
284, 28.500000000, 22.5778, -37.7171
285, 28.600000000, 22.5297, -37.7036
286, 28.700000000, 22.4815, -37.6903
287, 28.800000000, 22.4332, -37.6772
288, 28.900000000, 22.3849, -37.6645
289, 29.000000000, 22.3365, -37.6518
290, 29.100000000, 22.2882, -37.639
291, 29.200000000, 22.2399, -37.626
292, 29.300000000, 22.1917, -37.6127
293, 29.400000000, 22.1436, -37.5992
294, 29.500000000, 22.0955, -37.5855
295, 29.600000000, 22.0475, -37.5715
296, 29.700000000, 21.9996, -37.5572
297, 29.800000000, 21.9517, -37.5426
298, 29.900000000, 21.904, -37.5277
299, 30.000000000, 21.8563, -37.5126
300, 30.100000000, 21.8088, -37.4972
301, 30.200000000, 21.7613, -37.4816
302, 30.300000000, 21.7139, -37.4657
303, 30.400000000, 21.6666, -37.4495
304, 30.500000000, 21.6193, -37.4331
305, 30.600000000, 21.5722, -37.4165
306, 30.700000000, 21.5251, -37.3995
307, 30.800000000, 21.4782, -37.3822
308, 30.900000000, 21.4314, -37.3647
309, 31.000000000, 21.3847, -37.3469
310, 31.100000000, 21.3381, -37.3288
311, 31.200000000, 21.2916, -37.3104
312, 31.300000000, 21.2453, -37.2915
313, 31.400000000, 21.1991, -37.2723
314, 31.500000000, 21.1531, -37.2527
315, 31.600000000, 21.1072, -37.2328
316, 31.700000000, 21.0615, -37.2125
317, 31.800000000, 21.016, -37.1919
318, 31.900000000, 20.9706, -37.1708
319, 32.000000000, 20.9254, -37.1495
320, 32.100000000, 20.8804, -37.1277
321, 32.200000000, 20.8355, -37.1057
322, 32.300000000, 20.7909, -37.0832
323, 32.400000000, 20.7464, -37.0604
324, 32.500000000, 20.702, -37.0373
325, 32.600000000, 20.6579, -37.0138
326, 32.700000000, 20.614, -36.9899
327, 32.800000000, 20.5703, -36.9656
328, 32.900000000, 20.5268, -36.9409
329, 33.000000000, 20.4838, -36.9154
330, 33.100000000, 20.4414, -36.8889
331, 33.200000000, 20.3997, -36.8614
332, 33.300000000, 20.3586, -36.8328
333, 33.400000000, 20.3182, -36.8033
334, 33.500000000, 20.2783, -36.7732
335, 33.600000000, 20.2388, -36.7425
336, 33.700000000, 20.1997, -36.7115
337, 33.800000000, 20.1607, -36.6802
338, 33.900000000, 20.122, -36.6484
339, 34.000000000, 20.0837, -36.6163
340, 34.100000000, 20.0457, -36.5838
341, 34.200000000, 20.008, -36.551
342, 34.300000000, 19.9708, -36.5176
343, 34.400000000, 19.934, -36.4838
344, 34.500000000, 19.8975, -36.4496
345, 34.600000000, 19.8614, -36.4149
346, 34.700000000, 19.8258, -36.3798
347, 34.800000000, 19.7907, -36.3443
348, 34.900000000, 19.7561, -36.3081
349, 35.000000000, 19.7221, -36.2715
350, 35.100000000, 19.6887, -36.2343
351, 35.200000000, 19.6559, -36.1965
352, 35.300000000, 19.6235, -36.1585
353, 35.400000000, 19.5914, -36.1201
354, 35.500000000, 19.5586, -36.0824
355, 35.600000000, 19.5265, -36.044
356, 35.700000000, 19.4929, -36.007
357, 35.800000000, 19.4604, -35.969
358, 35.900000000, 19.4264, -35.9324
359, 36.000000000, 19.394, -35.8943
360, 36.100000000, 19.3595, -35.8581
361, 36.200000000, 19.327, -35.8201
362, 36.300000000, 19.2917, -35.7847
363, 36.400000000, 19.2586, -35.7472
364, 36.500000000, 19.229, -35.707
365, 36.600000000, 19.1934, -35.6718
366, 36.700000000, 19.16, -35.6346
367, 36.800000000, 19.1307, -35.5941
368, 36.900000000, 19.0954, -35.5586
369, 37.000000000, 19.063, -35.5205
370, 37.100000000, 19.0344, -35.4796
371, 37.200000000, 19.0021, -35.4414
372, 37.300000000, 18.9727, -35.401
373, 37.400000000, 18.9408, -35.3624
374, 37.500000000, 18.9123, -35.3214
375, 37.600000000, 18.8801, -35.2831
376, 37.700000000, 18.8511, -35.2424
377, 37.800000000, 18.8198, -35.2034
378, 37.900000000, 18.7919, -35.1619
379, 38.000000000, 18.7599, -35.1234
380, 38.100000000, 18.7313, -35.0824
381, 38.200000000, 18.7, -35.0435
382, 38.300000000, 18.672, -35.002
383, 38.400000000, 18.6441, -34.9605
384, 38.500000000, 18.6131, -34.9213
385, 38.600000000, 18.5854, -34.8797
386, 38.700000000, 18.556, -34.8392
387, 38.800000000, 18.528, -34.7978
388, 38.900000000, 18.4989, -34.7571
389, 39.000000000, 18.4718, -34.7152
390, 39.100000000, 18.4384, -34.6779
391, 39.200000000, 18.4112, -34.636
392, 39.300000000, 18.391, -34.5902
393, 39.400000000, 18.3781, -34.5419
394, 39.500000000, 18.3579, -34.4962
395, 39.600000000, 18.345, -34.4479
396, 39.700000000, 18.3399, -34.3982
397, 39.800000000, 18.327, -34.3498
398, 39.900000000, 18.3219, -34.3001
399, 40.000000000, 18.3246, -34.2502
400, 40.100000000, 18.3351, -34.2013
401, 40.200000000, 18.3531, -34.1546
402, 40.300000000, 18.3782, -34.1114
403, 40.400000000, 18.3962, -34.0647
404, 40.500000000, 18.4213, -34.0215
405, 40.600000000, 18.4393, -33.9748
406, 40.700000000, 18.4498, -33.926
407, 40.800000000, 18.4525, -33.876
408, 40.900000000, 18.4473, -33.8263
409, 41.000000000, 18.4345, -33.778
410, 41.100000000, 18.4142, -33.7323
411, 41.200000000, 18.3871, -33.6903
412, 41.300000000, 18.3537, -33.6531
413, 41.400000000, 18.3265, -33.6111
414, 41.500000000, 18.3063, -33.5654
415, 41.600000000, 18.2934, -33.517
416, 41.700000000, 18.2732, -33.4713
417, 41.800000000, 18.2603, -33.423
418, 41.900000000, 18.2401, -33.3773
419, 42.000000000, 18.2272, -33.329
420, 42.100000000, 18.207, -33.2832
421, 42.200000000, 18.1941, -33.2349
422, 42.300000000, 18.1739, -33.1892
423, 42.400000000, 18.161, -33.1409
424, 42.500000000, 18.1408, -33.0952
425, 42.600000000, 18.1279, -33.0469
426, 42.700000000, 18.1228, -32.9971
427, 42.800000000, 18.1099, -32.9488
428, 42.900000000, 18.0897, -32.9031
429, 43.000000000, 18.0768, -32.8548
430, 43.100000000, 18.0566, -32.8091
431, 43.200000000, 18.0437, -32.7607
432, 43.300000000, 18.0235, -32.715
433, 43.400000000, 17.9963, -32.673
434, 43.500000000, 17.9761, -32.6273
435, 43.600000000, 17.9632, -32.579
436, 43.700000000, 17.943, -32.5333
437, 43.800000000, 17.9158, -32.4913
438, 43.900000000, 17.8955, -32.4456
439, 44.000000000, 17.8684, -32.4036
440, 44.100000000, 17.8481, -32.3579
441, 44.200000000, 17.821, -32.3159
442, 44.300000000, 17.8007, -32.2702
443, 44.400000000, 17.7736, -32.2282
444, 44.500000000, 17.7533, -32.1825
445, 44.600000000, 17.7262, -32.1405
446, 44.700000000, 17.7059, -32.0948
447, 44.800000000, 17.6788, -32.0528
448, 44.900000000, 17.6585, -32.0071
449, 45.000000000, 17.6457, -31.9588
450, 45.100000000, 17.6405, -31.909
451, 45.200000000, 17.6277, -31.8607
452, 45.300000000, 17.6225, -31.811
453, 45.400000000, 17.6097, -31.7627
454, 45.500000000, 17.5894, -31.7169
455, 45.600000000, 17.5766, -31.6686
456, 45.700000000, 17.5563, -31.6229
457, 45.800000000, 17.5435, -31.5746
458, 45.900000000, 17.5232, -31.5289
459, 46.000000000, 17.5104, -31.4806
460, 46.100000000, 17.4901, -31.4348
461, 46.200000000, 17.4773, -31.3865
462, 46.300000000, 17.457, -31.3408
463, 46.400000000, 17.4299, -31.2988
464, 46.500000000, 17.4096, -31.2531
465, 46.600000000, 17.3825, -31.2111
466, 46.700000000, 17.3622, -31.1654
467, 46.800000000, 17.3351, -31.1234
468, 46.900000000, 17.3148, -31.0777
469, 47.000000000, 17.2876, -31.0357
470, 47.100000000, 17.2674, -30.99
471, 47.200000000, 17.2402, -30.948
472, 47.300000000, 17.2069, -30.9108
473, 47.400000000, 17.1797, -30.8688
474, 47.500000000, 17.1542, -30.8258
475, 47.600000000, 17.1222, -30.7874
476, 47.700000000, 17.0967, -30.7444
477, 47.800000000, 17.0676, -30.7037
478, 47.900000000, 17.0428, -30.6603
479, 48.000000000, 17.0115, -30.6213
480, 48.100000000, 16.9858, -30.5784
481, 48.200000000, 16.9591, -30.5361
482, 48.300000000, 16.9362, -30.4917
483, 48.400000000, 16.9104, -30.4488
484, 48.500000000, 16.8883, -30.404
485, 48.600000000, 16.8669, -30.3588
486, 48.700000000, 16.8473, -30.3128
487, 48.800000000, 16.8249, -30.2681
488, 48.900000000, 16.8065, -30.2216
489, 49.000000000, 16.7915, -30.1739
490, 49.100000000, 16.7752, -30.1266
491, 49.200000000, 16.7592, -30.0793
492, 49.300000000, 16.7454, -30.0312
493, 49.400000000, 16.7341, -29.9825
494, 49.500000000, 16.7243, -29.9335
495, 49.600000000, 16.7155, -29.8843
496, 49.700000000, 16.7071, -29.835
497, 49.800000000, 16.6986, -29.7857
498, 49.900000000, 16.69, -29.7365
499, 50.000000000, 16.6812, -29.6872
500, 50.100000000, 16.6719, -29.6381
501, 50.200000000, 16.6622, -29.5891
502, 50.300000000, 16.652, -29.5401
503, 50.400000000, 16.6414, -29.4913
504, 50.500000000, 16.6302, -29.4425
505, 50.600000000, 16.6187, -29.3939
506, 50.700000000, 16.6067, -29.3453
507, 50.800000000, 16.5943, -29.2969
508, 50.900000000, 16.5814, -29.2486
509, 51.000000000, 16.568, -29.2004
510, 51.100000000, 16.5543, -29.1523
511, 51.200000000, 16.5402, -29.1043
512, 51.300000000, 16.5259, -29.0564
513, 51.400000000, 16.5115, -29.0086
514, 51.500000000, 16.4969, -28.9607
515, 51.600000000, 16.4821, -28.913
516, 51.700000000, 16.4672, -28.8653
517, 51.800000000, 16.4521, -28.8176
518, 51.900000000, 16.4369, -28.7699
519, 52.000000000, 16.4216, -28.7223
520, 52.100000000, 16.4061, -28.6748
521, 52.200000000, 16.3904, -28.6274
522, 52.300000000, 16.3745, -28.5799
523, 52.400000000, 16.3585, -28.5326
524, 52.500000000, 16.3423, -28.4853
525, 52.600000000, 16.3259, -28.438
526, 52.700000000, 16.3095, -28.3908
527, 52.800000000, 16.2929, -28.3436
528, 52.900000000, 16.2761, -28.2965
529, 53.000000000, 16.2592, -28.2495
530, 53.100000000, 16.242, -28.2025
531, 53.200000000, 16.2247, -28.1556
532, 53.300000000, 16.2071, -28.1088
533, 53.400000000, 16.1894, -28.0621
534, 53.500000000, 16.1675, -28.0171
535, 53.600000000, 16.1463, -27.9718
536, 53.700000000, 16.1261, -27.9261
537, 53.800000000, 16.1058, -27.8804
538, 53.900000000, 16.0841, -27.8353
539, 54.000000000, 16.0612, -27.7909
540, 54.100000000, 16.0394, -27.7459
541, 54.200000000, 16.0183, -27.7006
542, 54.300000000, 15.9976, -27.6551
543, 54.400000000, 15.9723, -27.6119
544, 54.500000000, 15.9482, -27.5681
545, 54.600000000, 15.9253, -27.5237
546, 54.700000000, 15.903, -27.4789
547, 54.800000000, 15.881, -27.434
548, 54.900000000, 15.8588, -27.3892
549, 55.000000000, 15.8366, -27.3444
550, 55.100000000, 15.8143, -27.2997
551, 55.200000000, 15.792, -27.2549
552, 55.300000000, 15.7671, -27.2116
553, 55.400000000, 15.7424, -27.1681
554, 55.500000000, 15.7182, -27.1243
555, 55.600000000, 15.6944, -27.0803
556, 55.700000000, 15.671, -27.0362
557, 55.800000000, 15.6478, -26.9919
558, 55.900000000, 15.6248, -26.9475
559, 56.000000000, 15.6019, -26.903
560, 56.100000000, 15.5792, -26.8585
561, 56.200000000, 15.5565, -26.8139
562, 56.300000000, 15.5338, -26.7694
563, 56.400000000, 15.5112, -26.7248
564, 56.500000000, 15.4887, -26.6801
565, 56.600000000, 15.4662, -26.6355
566, 56.700000000, 15.4437, -26.5908
567, 56.800000000, 15.4212, -26.5462
568, 56.900000000, 15.3988, -26.5015
569, 57.000000000, 15.3764, -26.4568
570, 57.100000000, 15.3539, -26.4121
571, 57.200000000, 15.3315, -26.3674
572, 57.300000000, 15.309, -26.3228
573, 57.400000000, 15.2865, -26.2781
574, 57.500000000, 15.2639, -26.2335
575, 57.600000000, 15.2414, -26.1889
576, 57.700000000, 15.2188, -26.1443
577, 57.800000000, 15.1963, -26.0996
578, 57.900000000, 15.1738, -26.0549
579, 58.000000000, 15.1513, -26.0103
580, 58.100000000, 15.1288, -25.9657
581, 58.200000000, 15.1063, -25.921
582, 58.300000000, 15.0838, -25.8763
583, 58.400000000, 15.0613, -25.8317
584, 58.500000000, 15.0389, -25.787
585, 58.600000000, 15.0165, -25.7423
586, 58.700000000, 14.994, -25.6976
587, 58.800000000, 14.9716, -25.653
588, 58.900000000, 14.9491, -25.6083
589, 59.000000000, 14.9267, -25.5636
590, 59.100000000, 14.9042, -25.5189
591, 59.200000000, 14.8818, -25.4743
592, 59.300000000, 14.8593, -25.4296
593, 59.400000000, 14.8369, -25.3849
594, 59.500000000, 14.8145, -25.3402
595, 59.600000000, 14.792, -25.2955
596, 59.700000000, 14.7695, -25.2509
597, 59.800000000, 14.7471, -25.2062
598, 59.900000000, 14.7247, -25.1615
599, 60.000000000, 14.7023, -25.1168
600, 60.100000000, 14.6799, -25.0721
601, 60.200000000, 14.6575, -25.0274
602, 60.300000000, 14.6351, -24.9827
603, 60.400000000, 14.6127, -24.938
604, 60.500000000, 14.5902, -24.8933
605, 60.600000000, 14.5678, -24.8486
606, 60.700000000, 14.5454, -24.8039
607, 60.800000000, 14.5229, -24.7593
608, 60.900000000, 14.5005, -24.7146
609, 61.000000000, 14.478, -24.6699
610, 61.100000000, 14.4556, -24.6252
611, 61.200000000, 14.433, -24.5806
612, 61.300000000, 14.4104, -24.536
613, 61.400000000, 14.3878, -24.4914
614, 61.500000000, 14.3653, -24.4468
615, 61.600000000, 14.3428, -24.4021
616, 61.700000000, 14.3202, -24.3575
617, 61.800000000, 14.2978, -24.3128
618, 61.900000000, 14.2753, -24.2681
619, 62.000000000, 14.2529, -24.2235
620, 62.100000000, 14.2304, -24.1788
621, 62.200000000, 14.2079, -24.1341
622, 62.300000000, 14.1855, -24.0895
623, 62.400000000, 14.1631, -24.0448
624, 62.500000000, 14.1406, -24.0001
625, 62.600000000, 14.1181, -23.9554
626, 62.700000000, 14.0956, -23.9108
627, 62.800000000, 14.0731, -23.8661
628, 62.900000000, 14.0506, -23.8215
629, 63.000000000, 14.028, -23.7769
630, 63.100000000, 14.0055, -23.7322
631, 63.200000000, 13.983, -23.6876
632, 63.300000000, 13.9605, -23.6429
633, 63.400000000, 13.938, -23.5983
634, 63.500000000, 13.9154, -23.5537
635, 63.600000000, 13.893, -23.509
636, 63.700000000, 13.8705, -23.4643
637, 63.800000000, 13.848, -23.4197
638, 63.900000000, 13.8255, -23.375
639, 64.000000000, 13.803, -23.3304
640, 64.100000000, 13.7806, -23.2857
641, 64.200000000, 13.7582, -23.241
642, 64.300000000, 13.7357, -23.1963
643, 64.400000000, 13.7133, -23.1516
644, 64.500000000, 13.6908, -23.107
645, 64.600000000, 13.6683, -23.0623
646, 64.700000000, 13.6458, -23.0177
