Sequence, time(s), pose_x(m), pose_y(m)
126, 12.700000000, 44.989, -54.602
137, 13.800000000, 45.0308, -54.5745
138, 13.900000000, 45.0677, -54.5408
139, 14.000000000, 45.0989, -54.5017
140, 14.100000000, 45.1236, -54.4583
141, 14.200000000, 45.1412, -54.4115
142, 14.300000000, 45.1521, -54.3627
143, 14.400000000, 45.1571, -54.3129
144, 14.500000000, 45.1567, -54.2629
145, 14.600000000, 45.1517, -54.2132
146, 14.700000000, 45.1428, -54.164
147, 14.800000000, 45.1305, -54.1155
148, 14.900000000, 45.1153, -54.0679
149, 15.000000000, 45.0976, -54.0211
150, 15.100000000, 45.0778, -53.9752
151, 15.200000000, 45.0562, -53.9301
152, 15.300000000, 45.033, -53.8858
153, 15.400000000, 45.0086, -53.8422
154, 15.500000000, 44.983, -53.7992
155, 15.600000000, 44.9564, -53.7569
156, 15.700000000, 44.929, -53.715
157, 15.800000000, 44.901, -53.6737
158, 15.900000000, 44.8723, -53.6327
159, 16.000000000, 44.843, -53.5921
160, 16.100000000, 44.8133, -53.5519
161, 16.200000000, 44.7833, -53.512
162, 16.300000000, 44.7529, -53.4723
163, 16.400000000, 44.7222, -53.4328
164, 16.500000000, 44.6912, -53.3935
165, 16.600000000, 44.6601, -53.3544
166, 16.700000000, 44.6287, -53.3155
167, 16.800000000, 44.5972, -53.2767
168, 16.900000000, 44.5655, -53.238
169, 17.000000000, 44.5337, -53.1994
170, 17.100000000, 44.5019, -53.1609
171, 17.200000000, 44.4699, -53.1224
172, 17.300000000, 44.4378, -53.0841
173, 17.400000000, 44.4057, -53.0457
174, 17.500000000, 44.3735, -53.0075
175, 17.600000000, 44.3413, -52.9693
176, 17.700000000, 44.309, -52.9311
177, 17.800000000, 44.2766, -52.8929
178, 17.900000000, 44.2443, -52.8548
179, 18.000000000, 44.2119, -52.8167
180, 18.100000000, 44.1795, -52.7787
181, 18.200000000, 44.147, -52.7406
182, 18.300000000, 44.1146, -52.7026
183, 18.400000000, 44.0821, -52.6646
184, 18.500000000, 44.0496, -52.6266
185, 18.600000000, 44.0171, -52.5886
186, 18.700000000, 43.9846, -52.5506
187, 18.800000000, 43.9521, -52.5126
188, 18.900000000, 43.9196, -52.4746
189, 19.000000000, 43.887, -52.4367
190, 19.100000000, 43.8545, -52.3987
191, 19.200000000, 43.8219, -52.3608
192, 19.300000000, 43.7894, -52.3228
193, 19.400000000, 43.7568, -52.2849
194, 19.500000000, 43.7242, -52.2469
195, 19.600000000, 43.6917, -52.209
196, 19.700000000, 43.6591, -52.171
197, 19.800000000, 43.6265, -52.1331
198, 19.900000000, 43.594, -52.0952
199, 20.000000000, 43.5614, -52.0572
200, 20.100000000, 43.5288, -52.0193
201, 20.200000000, 43.4962, -51.9814
202, 20.300000000, 43.4637, -51.9434
203, 20.400000000, 43.4311, -51.9055
204, 20.500000000, 43.3985, -51.8676
205, 20.600000000, 43.3659, -51.8297
206, 20.700000000, 43.3333, -51.7917
207, 20.800000000, 43.3008, -51.7538
208, 20.900000000, 43.2682, -51.7159
209, 21.000000000, 43.2356, -51.678
210, 21.100000000, 43.203, -51.64
211, 21.200000000, 43.1704, -51.6021
212, 21.300000000, 43.1378, -51.5642
213, 21.400000000, 43.1053, -51.5263
214, 21.500000000, 43.0727, -51.4883
215, 21.600000000, 43.0401, -51.4504
216, 21.700000000, 43.0075, -51.4125
217, 21.800000000, 42.9749, -51.3746
218, 21.900000000, 42.9423, -51.3366
219, 22.000000000, 42.9097, -51.2987
220, 22.100000000, 42.8772, -51.2608
221, 22.200000000, 42.8446, -51.2229
222, 22.300000000, 42.812, -51.185
223, 22.400000000, 42.7794, -51.147
224, 22.500000000, 42.7468, -51.1091
225, 22.600000000, 42.7142, -51.0712
226, 22.700000000, 42.6816, -51.0333
227, 22.800000000, 42.649, -50.9953
228, 22.900000000, 42.6165, -50.9574
229, 23.000000000, 42.5839, -50.9195
230, 23.100000000, 42.5513, -50.8816
231, 23.200000000, 42.5187, -50.8436
232, 23.300000000, 42.4861, -50.8057
233, 23.400000000, 42.4535, -50.7678
234, 23.500000000, 42.4209, -50.7299
235, 23.600000000, 42.3884, -50.692
236, 23.700000000, 42.3558, -50.654
237, 23.800000000, 42.3232, -50.6161
238, 23.900000000, 42.2906, -50.5782
239, 24.000000000, 42.258, -50.5403
240, 24.100000000, 42.2254, -50.5023
241, 24.200000000, 42.1928, -50.4644
242, 24.300000000, 42.1603, -50.4265
243, 24.400000000, 42.1277, -50.3886
244, 24.500000000, 42.0951, -50.3507
245, 24.600000000, 42.0625, -50.3127
246, 24.700000000, 42.0299, -50.2748
247, 24.800000000, 41.9973, -50.2369
248, 24.900000000, 41.9647, -50.199
249, 25.000000000, 41.9321, -50.161
250, 25.100000000, 41.8996, -50.1231
251, 25.200000000, 41.867, -50.0852
252, 25.300000000, 41.8343, -50.0473
253, 25.400000000, 41.8016, -50.0095
254, 25.500000000, 41.7688, -49.9718
255, 25.600000000, 41.7358, -49.9342
256, 25.700000000, 41.7026, -49.8968
257, 25.800000000, 41.6693, -49.8595
258, 25.900000000, 41.6358, -49.8225
259, 26.000000000, 41.6021, -49.7855
260, 26.100000000, 41.5683, -49.7487
261, 26.200000000, 41.5344, -49.7118
262, 26.300000000, 41.5006, -49.675
263, 26.400000000, 41.4668, -49.6382
264, 26.500000000, 41.4329, -49.6014
265, 26.600000000, 41.3991, -49.5646
266, 26.700000000, 41.3652, -49.5278
267, 26.800000000, 41.3313, -49.491
268, 26.900000000, 41.2975, -49.4543
269, 27.000000000, 41.2636, -49.4175
270, 27.100000000, 41.2298, -49.3807
271, 27.200000000, 41.1959, -49.3439
272, 27.300000000, 41.1621, -49.307
273, 27.400000000, 41.1283, -49.2702
274, 27.500000000, 41.0946, -49.2333
275, 27.600000000, 41.0608, -49.1964
276, 27.700000000, 41.0271, -49.1595
277, 27.800000000, 40.9934, -49.1225
278, 27.900000000, 40.9597, -49.0856
279, 28.000000000, 40.926, -49.0487
280, 28.100000000, 40.8923, -49.0117
281, 28.200000000, 40.8586, -48.9748
282, 28.300000000, 40.825, -48.9378
283, 28.400000000, 40.7914, -48.9007
284, 28.500000000, 40.7578, -48.8637
285, 28.600000000, 40.7243, -48.8266
286, 28.700000000, 40.6907, -48.7896
287, 28.800000000, 40.6572, -48.7525
288, 28.900000000, 40.6236, -48.7154
289, 29.000000000, 40.5901, -48.6783
290, 29.100000000, 40.5567, -48.6411
291, 29.200000000, 40.5233, -48.6039
292, 29.300000000, 40.4899, -48.5667
293, 29.400000000, 40.4566, -48.5294
294, 29.500000000, 40.4232, -48.4921
295, 29.600000000, 40.39, -48.4548
296, 29.700000000, 40.3568, -48.4174
297, 29.800000000, 40.3236, -48.38
298, 29.900000000, 40.2905, -48.3425
299, 30.000000000, 40.2575, -48.305
300, 30.100000000, 40.2245, -48.2674
301, 30.200000000, 40.1916, -48.2298
302, 30.300000000, 40.1587, -48.1921
303, 30.400000000, 40.1259, -48.1544
304, 30.500000000, 40.0932, -48.1166
305, 30.600000000, 40.0605, -48.0787
306, 30.700000000, 40.0278, -48.0409
307, 30.800000000, 39.9952, -48.003
308, 30.900000000, 39.9627, -47.965
309, 31.000000000, 39.9301, -47.9271
310, 31.100000000, 39.8976, -47.8891
311, 31.200000000, 39.8651, -47.8511
312, 31.300000000, 39.8327, -47.813
313, 31.400000000, 39.8003, -47.7749
314, 31.500000000, 39.7679, -47.7368
315, 31.600000000, 39.7355, -47.6987
316, 31.700000000, 39.7032, -47.6606
317, 31.800000000, 39.6709, -47.6224
318, 31.900000000, 39.6387, -47.5842
319, 32.000000000, 39.6065, -47.5459
320, 32.100000000, 39.5745, -47.5075
321, 32.200000000, 39.5426, -47.469
322, 32.300000000, 39.5108, -47.4304
323, 32.400000000, 39.4791, -47.3917
324, 32.500000000, 39.4477, -47.3529
325, 32.600000000, 39.4164, -47.3138
326, 32.700000000, 39.3854, -47.2747
327, 32.800000000, 39.3545, -47.2353
328, 32.900000000, 39.3238, -47.1959
329, 33.000000000, 39.2933, -47.1562
330, 33.100000000, 39.263, -47.1165
331, 33.200000000, 39.2328, -47.0766
332, 33.300000000, 39.2028, -47.0366
333, 33.400000000, 39.1729, -46.9966
334, 33.500000000, 39.1429, -46.9565
335, 33.600000000, 39.113, -46.9165
336, 33.700000000, 39.083, -46.8764
337, 33.800000000, 39.053, -46.8365
338, 33.900000000, 39.0228, -46.7966
339, 34.000000000, 38.9925, -46.7568
340, 34.100000000, 38.962, -46.7172
341, 34.200000000, 38.9314, -46.6777
342, 34.300000000, 38.9006, -46.6383
343, 34.400000000, 38.8695, -46.5991
344, 34.500000000, 38.8383, -46.5601
345, 34.600000000, 38.8069, -46.5212
346, 34.700000000, 38.7753, -46.4824
347, 34.800000000, 38.7436, -46.4437
348, 34.900000000, 38.7118, -46.4052
349, 35.000000000, 38.6799, -46.3667
350, 35.100000000, 38.6479, -46.3283
351, 35.200000000, 38.6158, -46.2899
352, 35.300000000, 38.5836, -46.2516
353, 35.400000000, 38.5514, -46.2134
354, 35.500000000, 38.5191, -46.1752
355, 35.600000000, 38.4868, -46.137
356, 35.700000000, 38.4545, -46.0989
357, 35.800000000, 38.4221, -46.0608
358, 35.900000000, 38.3897, -46.0227
359, 36.000000000, 38.3573, -45.9847
360, 36.100000000, 38.3248, -45.9466
361, 36.200000000, 38.2923, -45.9086
362, 36.300000000, 38.2598, -45.8706
363, 36.400000000, 38.2273, -45.8326
364, 36.500000000, 38.1948, -45.7946
365, 36.600000000, 38.1623, -45.7567
366, 36.700000000, 38.1298, -45.7187
367, 36.800000000, 38.0972, -45.6807
368, 36.900000000, 38.0647, -45.6428
369, 37.000000000, 38.0321, -45.6048
370, 37.100000000, 37.9996, -45.5669
371, 37.200000000, 37.967, -45.529
372, 37.300000000, 37.9344, -45.491
373, 37.400000000, 37.9018, -45.4531
374, 37.500000000, 37.8693, -45.4151
375, 37.600000000, 37.8367, -45.3772
376, 37.700000000, 37.8041, -45.3393
377, 37.800000000, 37.7715, -45.3014
378, 37.900000000, 37.7389, -45.2634
379, 38.000000000, 37.7063, -45.2255
380, 38.100000000, 37.6738, -45.1876
381, 38.200000000, 37.6412, -45.1497
382, 38.300000000, 37.6086, -45.1118
383, 38.400000000, 37.576, -45.0738
384, 38.500000000, 37.5434, -45.0359
385, 38.600000000, 37.5108, -44.998
386, 38.700000000, 37.4782, -44.9601
387, 38.800000000, 37.4456, -44.9222
388, 38.900000000, 37.413, -44.8843
389, 39.000000000, 37.3804, -44.8463
390, 39.100000000, 37.3478, -44.8084
391, 39.200000000, 37.3152, -44.7705
392, 39.300000000, 37.2826, -44.7326
393, 39.400000000, 37.2501, -44.6947
394, 39.500000000, 37.2175, -44.6568
395, 39.600000000, 37.1849, -44.6189
396, 39.700000000, 37.1523, -44.5809
397, 39.800000000, 37.1197, -44.543
398, 39.900000000, 37.0871, -44.5051
399, 40.000000000, 37.0545, -44.4672
400, 40.100000000, 37.0219, -44.4293
401, 40.200000000, 36.9893, -44.3914
402, 40.300000000, 36.9567, -44.3535
403, 40.400000000, 36.9241, -44.3155
404, 40.500000000, 36.8915, -44.2776
405, 40.600000000, 36.8589, -44.2397
406, 40.700000000, 36.8263, -44.2018
407, 40.800000000, 36.7937, -44.1639
408, 40.900000000, 36.7611, -44.126
409, 41.000000000, 36.7285, -44.0881
410, 41.100000000, 36.6959, -44.0501
411, 41.200000000, 36.6633, -44.0122
412, 41.300000000, 36.6307, -43.9743
413, 41.400000000, 36.5981, -43.9364
414, 41.500000000, 36.5655, -43.8985
415, 41.600000000, 36.5329, -43.8606
416, 41.700000000, 36.5003, -43.8227
417, 41.800000000, 36.4677, -43.7847
418, 41.900000000, 36.4351, -43.7468
419, 42.000000000, 36.4025, -43.7089
420, 42.100000000, 36.3699, -43.671
421, 42.200000000, 36.3373, -43.6331
422, 42.300000000, 36.3047, -43.5952
423, 42.400000000, 36.2722, -43.5573
424, 42.500000000, 36.2396, -43.5194
425, 42.600000000, 36.207, -43.4814
426, 42.700000000, 36.1744, -43.4435
427, 42.800000000, 36.1418, -43.4056
428, 42.900000000, 36.1092, -43.3677
429, 43.000000000, 36.0766, -43.3298
430, 43.100000000, 36.044, -43.2919
431, 43.200000000, 36.0114, -43.254
432, 43.300000000, 35.9788, -43.216
433, 43.400000000, 35.9462, -43.1781
434, 43.500000000, 35.9136, -43.1402
435, 43.600000000, 35.881, -43.1023
436, 43.700000000, 35.8484, -43.0644
437, 43.800000000, 35.8158, -43.0265
438, 43.900000000, 35.7832, -42.9886
439, 44.000000000, 35.7506, -42.9506
440, 44.100000000, 35.718, -42.9127
441, 44.200000000, 35.6854, -42.8748
442, 44.300000000, 35.6528, -42.8369
443, 44.400000000, 35.6202, -42.799
444, 44.500000000, 35.5876, -42.7611
445, 44.600000000, 35.555, -42.7232
446, 44.700000000, 35.5224, -42.6853
447, 44.800000000, 35.4898, -42.6473
448, 44.900000000, 35.4572, -42.6094
449, 45.000000000, 35.4246, -42.5715
450, 45.100000000, 35.392, -42.5336
451, 45.200000000, 35.3594, -42.4957
452, 45.300000000, 35.3268, -42.4578
453, 45.400000000, 35.2942, -42.4199
454, 45.500000000, 35.2616, -42.3819
455, 45.600000000, 35.2291, -42.344
456, 45.700000000, 35.1965, -42.3061
457, 45.800000000, 35.1639, -42.2682
458, 45.900000000, 35.1313, -42.2303
459, 46.000000000, 35.0987, -42.1924
460, 46.100000000, 35.0661, -42.1545
461, 46.200000000, 35.0335, -42.1165
462, 46.300000000, 35.0009, -42.0786
463, 46.400000000, 34.9683, -42.0407
464, 46.500000000, 34.9357, -42.0028
465, 46.600000000, 34.9031, -41.9649
466, 46.700000000, 34.8705, -41.927
467, 46.800000000, 34.8379, -41.8891
468, 46.900000000, 34.8053, -41.8512
469, 47.000000000, 34.7727, -41.8132
470, 47.100000000, 34.7401, -41.7753
471, 47.200000000, 34.7075, -41.7374
472, 47.300000000, 34.6749, -41.6995
473, 47.400000000, 34.6423, -41.6616
474, 47.500000000, 34.6097, -41.6237
475, 47.600000000, 34.5771, -41.5858
476, 47.700000000, 34.5444, -41.5479
477, 47.800000000, 34.5118, -41.51
478, 47.900000000, 34.4792, -41.4721
479, 48.000000000, 34.4465, -41.4343
480, 48.100000000, 34.4137, -41.3966
481, 48.200000000, 34.3806, -41.3591
482, 48.300000000, 34.3471, -41.322
483, 48.400000000, 34.3132, -41.2852
484, 48.500000000, 34.2789, -41.2488
485, 48.600000000, 34.2443, -41.2127
486, 48.700000000, 34.2094, -41.1769
487, 48.800000000, 34.1743, -41.1413
488, 48.900000000, 34.139, -41.1059
489, 49.000000000, 34.1035, -41.0707
490, 49.100000000, 34.0678, -41.0357
491, 49.200000000, 34.032, -41.0008
492, 49.300000000, 33.9961, -40.966
493, 49.400000000, 33.9601, -40.9313
494, 49.500000000, 33.924, -40.8967
495, 49.600000000, 33.8878, -40.8623
496, 49.700000000, 33.8515, -40.8279
497, 49.800000000, 33.8151, -40.7936
498, 49.900000000, 33.7786, -40.7594
499, 50.000000000, 33.7421, -40.7252
500, 50.100000000, 33.7056, -40.6911
501, 50.200000000, 33.669, -40.657
502, 50.300000000, 33.6323, -40.623
503, 50.400000000, 33.5957, -40.589
504, 50.500000000, 33.559, -40.555
505, 50.600000000, 33.5222, -40.5211
506, 50.700000000, 33.4855, -40.4872
507, 50.800000000, 33.4487, -40.4533
508, 50.900000000, 33.4118, -40.4195
509, 51.000000000, 33.375, -40.3858
510, 51.100000000, 33.338, -40.3521
511, 51.200000000, 33.3011, -40.3184
512, 51.300000000, 33.2641, -40.2847
513, 51.400000000, 33.2272, -40.251
514, 51.500000000, 33.1902, -40.2174
515, 51.600000000, 33.1532, -40.1838
516, 51.700000000, 33.1161, -40.1502
517, 51.800000000, 33.079, -40.1167
518, 51.900000000, 33.0419, -40.0832
519, 52.000000000, 33.0048, -40.0497
520, 52.100000000, 32.9676, -40.0163
521, 52.200000000, 32.9304, -39.9829
522, 52.300000000, 32.8932, -39.9495
523, 52.400000000, 32.8559, -39.9161
524, 52.500000000, 32.8187, -39.8827
525, 52.600000000, 32.7814, -39.8494
526, 52.700000000, 32.744, -39.8162
527, 52.800000000, 32.7067, -39.783
528, 52.900000000, 32.6693, -39.7497
529, 53.000000000, 32.6319, -39.7165
530, 53.100000000, 32.5946, -39.6833
531, 53.200000000, 32.5571, -39.6502
532, 53.300000000, 32.515, -39.6233
533, 53.400000000, 32.4691, -39.6033
534, 53.500000000, 32.4207, -39.5908
535, 53.600000000, 32.3709, -39.586
536, 53.700000000, 32.321, -39.5891
537, 53.800000000, 32.2722, -39.5999
538, 53.900000000, 32.2257, -39.6182
539, 54.000000000, 32.1826, -39.6436
540, 54.100000000, 32.1361, -39.6619
541, 54.200000000, 32.0873, -39.6728
542, 54.300000000, 32.0408, -39.6911
543, 54.400000000, 31.9919, -39.7019
544, 54.500000000, 31.942, -39.705
545, 54.600000000, 31.8932, -39.7158
546, 54.700000000, 31.8433, -39.7188
547, 54.800000000, 31.7945, -39.7297
548, 54.900000000, 31.7446, -39.7327
549, 55.000000000, 31.6947, -39.7351
550, 55.100000000, 31.645, -39.7297
551, 55.200000000, 31.595, -39.7301
552, 55.300000000, 31.545, -39.7291
553, 55.400000000, 31.4958, -39.7202
554, 55.500000000, 31.4458, -39.7191
555, 55.600000000, 31.3959, -39.7152
556, 55.700000000, 31.3464, -39.7081
557, 55.800000000, 31.2971, -39.7
558, 55.900000000, 31.2479, -39.6909
559, 56.000000000, 31.199, -39.6804
560, 56.100000000, 31.1505, -39.6684
561, 56.200000000, 31.1023, -39.655
562, 56.300000000, 31.0546, -39.6401
563, 56.400000000, 31.0074, -39.6235
564, 56.500000000, 30.9608, -39.6055
565, 56.600000000, 30.9145, -39.5865
566, 56.700000000, 30.869, -39.5659
567, 56.800000000, 30.824, -39.5441
568, 56.900000000, 30.7798, -39.5206
569, 57.000000000, 30.7362, -39.4963
570, 57.100000000, 30.6932, -39.4707
571, 57.200000000, 30.6512, -39.4436
572, 57.300000000, 30.6097, -39.4157
573, 57.400000000, 30.5694, -39.3861
574, 57.500000000, 30.5301, -39.3552
575, 57.600000000, 30.4916, -39.3233
576, 57.700000000, 30.454, -39.2904
577, 57.800000000, 30.4171, -39.2565
578, 57.900000000, 30.3811, -39.2219
579, 58.000000000, 30.3457, -39.1866
580, 58.100000000, 30.3109, -39.1507
581, 58.200000000, 30.2767, -39.1142
582, 58.300000000, 30.2431, -39.0772
583, 58.400000000, 30.21, -39.0397
584, 58.500000000, 30.1774, -39.0018
585, 58.600000000, 30.1454, -38.9634
586, 58.700000000, 30.1139, -38.9245
587, 58.800000000, 30.0829, -38.8853
588, 58.900000000, 30.0524, -38.8457
589, 59.000000000, 30.0223, -38.8058
590, 59.100000000, 29.9924, -38.7657
591, 59.200000000, 29.9629, -38.7253
592, 59.300000000, 29.9336, -38.6848
593, 59.400000000, 29.9046, -38.6441
594, 59.500000000, 29.8758, -38.6032
595, 59.600000000, 29.8473, -38.5621
596, 59.700000000, 29.819, -38.5209
597, 59.800000000, 29.791, -38.4795
598, 59.900000000, 29.7631, -38.438
599, 60.000000000, 29.7353, -38.3964
600, 60.100000000, 29.7077, -38.3547
601, 60.200000000, 29.6802, -38.3129
602, 60.300000000, 29.6529, -38.2711
603, 60.400000000, 29.6257, -38.2291
604, 60.500000000, 29.5986, -38.1871
605, 60.600000000, 29.5717, -38.145
606, 60.700000000, 29.5447, -38.1029
607, 60.800000000, 29.5177, -38.0608
608, 60.900000000, 29.4904, -38.0189
609, 61.000000000, 29.4628, -37.9772
610, 61.100000000, 29.4346, -37.936
611, 61.200000000, 29.4057, -37.8951
612, 61.300000000, 29.3761, -37.8548
613, 61.400000000, 29.3458, -37.815
614, 61.500000000, 29.3148, -37.7758
615, 61.600000000, 29.283, -37.7373
616, 61.700000000, 29.2505, -37.6992
617, 61.800000000, 29.2174, -37.6618
618, 61.900000000, 29.1836, -37.6249
619, 62.000000000, 29.1492, -37.5886
620, 62.100000000, 29.1143, -37.5529
621, 62.200000000, 29.0788, -37.5176
622, 62.300000000, 29.0428, -37.4829
623, 62.400000000, 29.0063, -37.4488
624, 62.500000000, 28.9691, -37.4153
625, 62.600000000, 28.9313, -37.3826
626, 62.700000000, 28.8929, -37.3506
627, 62.800000000, 28.8539, -37.3193
628, 62.900000000, 28.8144, -37.2887
629, 63.000000000, 28.7743, -37.2588
630, 63.100000000, 28.7336, -37.2297
631, 63.200000000, 28.6926, -37.2011
632, 63.300000000, 28.6516, -37.1725
633, 63.400000000, 28.6104, -37.1441
634, 63.500000000, 28.5692, -37.1159
635, 63.600000000, 28.5278, -37.0878
636, 63.700000000, 28.4863, -37.0599
637, 63.800000000, 28.4447, -37.0322
638, 63.900000000, 28.403, -37.0045
639, 64.000000000, 28.3613, -36.977
640, 64.100000000, 28.3194, -36.9497
641, 64.200000000, 28.2774, -36.9226
642, 64.300000000, 28.2353, -36.8957
643, 64.400000000, 28.1931, -36.8687
644, 64.500000000, 28.151, -36.8419
645, 64.600000000, 28.1087, -36.8151
646, 64.700000000, 28.0664, -36.7886
647, 64.800000000, 28.0238, -36.7624
648, 64.900000000, 27.9809, -36.7366
649, 65.000000000, 27.9381, -36.7108
650, 65.100000000, 27.8952, -36.685
651, 65.200000000, 27.8523, -36.6594
652, 65.300000000, 27.8093, -36.6339
653, 65.400000000, 27.766, -36.609
654, 65.500000000, 27.7223, -36.5847
655, 65.600000000, 27.6782, -36.561
656, 65.700000000, 27.634, -36.5377
657, 65.800000000, 27.5894, -36.5152
658, 65.900000000, 27.5444, -36.4932
659, 66.000000000, 27.4992, -36.472
660, 66.100000000, 27.4536, -36.4514
661, 66.200000000, 27.4076, -36.4317
662, 66.300000000, 27.3613, -36.4128
663, 66.400000000, 27.3148, -36.3946
664, 66.500000000, 27.2679, -36.3771
665, 66.600000000, 27.2212, -36.3594
666, 66.700000000, 27.1746, -36.3413
667, 66.800000000, 27.1283, -36.3223
668, 66.900000000, 27.0828, -36.3015
669, 67.000000000, 27.0383, -36.2787
670, 67.100000000, 26.995, -36.2538
671, 67.200000000, 26.9528, -36.227
672, 67.300000000, 26.9116, -36.1986
673, 67.400000000, 26.8712, -36.1691
674, 67.500000000, 26.8315, -36.1388
675, 67.600000000, 26.7922, -36.1079
676, 67.700000000, 26.7531, -36.0767
677, 67.800000000, 26.7142, -36.0453
