Sequence, time(s), pose_x(m), pose_y(m)
374, 37.500000000, 49.371, -43.182
393, 39.400000000, 49.3651, -43.2317
394, 39.500000000, 49.3516, -43.2798
395, 39.600000000, 49.3307, -43.3252
396, 39.700000000, 49.3029, -43.3668
397, 39.800000000, 49.269, -43.4035
398, 39.900000000, 49.2298, -43.4345
399, 40.000000000, 49.1861, -43.459
400, 40.100000000, 49.1392, -43.4763
401, 40.200000000, 49.0902, -43.4861
402, 40.300000000, 49.0403, -43.488
403, 40.400000000, 48.9906, -43.4822
404, 40.500000000, 48.9425, -43.4687
405, 40.600000000, 48.8953, -43.4521
406, 40.700000000, 48.8489, -43.4335
407, 40.800000000, 48.8032, -43.4132
408, 40.900000000, 48.7582, -43.3914
409, 41.000000000, 48.7138, -43.3683
410, 41.100000000, 48.6701, -43.3441
411, 41.200000000, 48.6268, -43.3191
412, 41.300000000, 48.584, -43.2932
413, 41.400000000, 48.5416, -43.2667
414, 41.500000000, 48.4996, -43.2395
415, 41.600000000, 48.458, -43.2119
416, 41.700000000, 48.4166, -43.1838
417, 41.800000000, 48.3755, -43.1553
418, 41.900000000, 48.3346, -43.1265
419, 42.000000000, 48.2939, -43.0975
420, 42.100000000, 48.2534, -43.0682
421, 42.200000000, 48.2131, -43.0386
422, 42.300000000, 48.1729, -43.0089
423, 42.400000000, 48.1328, -42.9791
424, 42.500000000, 48.0928, -42.9491
425, 42.600000000, 48.0529, -42.9189
426, 42.700000000, 48.013, -42.8887
427, 42.800000000, 47.9733, -42.8584
428, 42.900000000, 47.9336, -42.828
429, 43.000000000, 47.8939, -42.7975
430, 43.100000000, 47.8543, -42.767
431, 43.200000000, 47.8148, -42.7364
432, 43.300000000, 47.7752, -42.7058
433, 43.400000000, 47.7357, -42.6752
434, 43.500000000, 47.6963, -42.6445
435, 43.600000000, 47.6568, -42.6138
436, 43.700000000, 47.6174, -42.583
437, 43.800000000, 47.578, -42.5523
438, 43.900000000, 47.5386, -42.5215
439, 44.000000000, 47.4992, -42.4907
440, 44.100000000, 47.4598, -42.4599
441, 44.200000000, 47.4204, -42.429
442, 44.300000000, 47.3811, -42.3982
443, 44.400000000, 47.3417, -42.3673
444, 44.500000000, 47.3024, -42.3365
445, 44.600000000, 47.263, -42.3056
446, 44.700000000, 47.2237, -42.2748
447, 44.800000000, 47.1844, -42.2439
448, 44.900000000, 47.145, -42.213
449, 45.000000000, 47.1057, -42.1821
450, 45.100000000, 47.0664, -42.1512
451, 45.200000000, 47.0271, -42.1204
452, 45.300000000, 46.9878, -42.0895
453, 45.400000000, 46.9485, -42.0586
454, 45.500000000, 46.9091, -42.0277
455, 45.600000000, 46.8698, -41.9968
456, 45.700000000, 46.8305, -41.9659
457, 45.800000000, 46.7912, -41.935
458, 45.900000000, 46.7519, -41.9041
459, 46.000000000, 46.7126, -41.8731
460, 46.100000000, 46.6734, -41.8421
461, 46.200000000, 46.6342, -41.811
462, 46.300000000, 46.5951, -41.7799
463, 46.400000000, 46.5561, -41.7486
464, 46.500000000, 46.5171, -41.7173
465, 46.600000000, 46.4782, -41.6859
466, 46.700000000, 46.4393, -41.6545
467, 46.800000000, 46.4005, -41.623
468, 46.900000000, 46.3618, -41.5914
469, 47.000000000, 46.323, -41.5598
470, 47.100000000, 46.2843, -41.5281
471, 47.200000000, 46.2457, -41.4964
472, 47.300000000, 46.207, -41.4646
473, 47.400000000, 46.1685, -41.4328
474, 47.500000000, 46.1299, -41.401
475, 47.600000000, 46.0913, -41.3692
476, 47.700000000, 46.0528, -41.3373
477, 47.800000000, 46.0143, -41.3054
478, 47.900000000, 45.9758, -41.2735
479, 48.000000000, 45.9374, -41.2416
480, 48.100000000, 45.8989, -41.2096
481, 48.200000000, 45.8605, -41.1776
482, 48.300000000, 45.822, -41.1456
483, 48.400000000, 45.7836, -41.1136
484, 48.500000000, 45.7452, -41.0816
485, 48.600000000, 45.7068, -41.0496
486, 48.700000000, 45.6685, -41.0175
487, 48.800000000, 45.6301, -40.9854
488, 48.900000000, 45.5918, -40.9533
489, 49.000000000, 45.5534, -40.9212
490, 49.100000000, 45.5151, -40.8891
491, 49.200000000, 45.4768, -40.857
492, 49.300000000, 45.4385, -40.8248
493, 49.400000000, 45.4002, -40.7927
494, 49.500000000, 45.3619, -40.7605
495, 49.600000000, 45.3237, -40.7283
496, 49.700000000, 45.2854, -40.6961
497, 49.800000000, 45.2472, -40.6639
498, 49.900000000, 45.209, -40.6317
499, 50.000000000, 45.1707, -40.5994
500, 50.100000000, 45.1325, -40.5672
501, 50.200000000, 45.0944, -40.5349
502, 50.300000000, 45.0562, -40.5026
503, 50.400000000, 45.0181, -40.4702
504, 50.500000000, 44.9799, -40.4379
505, 50.600000000, 44.9418, -40.4055
506, 50.700000000, 44.9037, -40.3732
507, 50.800000000, 44.8656, -40.3408
508, 50.900000000, 44.8275, -40.3084
509, 51.000000000, 44.7895, -40.276
510, 51.100000000, 44.7514, -40.2436
511, 51.200000000, 44.7134, -40.2111
512, 51.300000000, 44.6754, -40.1786
513, 51.400000000, 44.6374, -40.1461
514, 51.500000000, 44.5994, -40.1136
515, 51.600000000, 44.5615, -40.081
516, 51.700000000, 44.5235, -40.0484
517, 51.800000000, 44.4857, -40.0158
518, 51.900000000, 44.4478, -39.9831
519, 52.000000000, 44.41, -39.9504
520, 52.100000000, 44.3722, -39.9176
521, 52.200000000, 44.3345, -39.8848
522, 52.300000000, 44.2984, -39.8503
523, 52.400000000, 44.2681, -39.8105
524, 52.500000000, 44.2444, -39.7665
525, 52.600000000, 44.2279, -39.7193
526, 52.700000000, 44.2189, -39.6701
527, 52.800000000, 44.2178, -39.6201
528, 52.900000000, 44.2089, -39.5709
529, 53.000000000, 44.2077, -39.5209
530, 53.100000000, 44.1988, -39.4717
531, 53.200000000, 44.1858, -39.4234
532, 53.300000000, 44.1805, -39.3737
533, 53.400000000, 44.1716, -39.3245
534, 53.500000000, 44.1551, -39.2773
535, 53.600000000, 44.1462, -39.2281
536, 53.700000000, 44.134, -39.1796
537, 53.800000000, 44.1145, -39.1336
538, 53.900000000, 44.0994, -39.0859
539, 54.000000000, 44.0817, -39.0392
540, 54.100000000, 44.0568, -38.9958
541, 54.200000000, 44.0391, -38.949
542, 54.300000000, 44.0193, -38.9031
543, 54.400000000, 43.9967, -38.8585
544, 54.500000000, 43.9716, -38.8153
545, 54.600000000, 43.9401, -38.7764
546, 54.700000000, 43.915, -38.7332
547, 54.800000000, 43.8889, -38.6906
548, 54.900000000, 43.8609, -38.6491
549, 55.000000000, 43.8313, -38.6088
550, 55.100000000, 43.8003, -38.5696
551, 55.200000000, 43.7682, -38.5313
552, 55.300000000, 43.7351, -38.4938
553, 55.400000000, 43.7011, -38.4571
554, 55.500000000, 43.6664, -38.4211
555, 55.600000000, 43.6311, -38.3857
556, 55.700000000, 43.5952, -38.3509
557, 55.800000000, 43.5589, -38.3166
558, 55.900000000, 43.5221, -38.2827
559, 56.000000000, 43.4849, -38.2493
560, 56.100000000, 43.4473, -38.2163
561, 56.200000000, 43.4094, -38.1837
562, 56.300000000, 43.3712, -38.1514
563, 56.400000000, 43.3328, -38.1194
564, 56.500000000, 43.2942, -38.0876
565, 56.600000000, 43.2553, -38.0562
566, 56.700000000, 43.216, -38.0253
567, 56.800000000, 43.1759, -37.9955
568, 56.900000000, 43.1347, -37.9671
569, 57.000000000, 43.0924, -37.9404
570, 57.100000000, 43.0491, -37.9154
571, 57.200000000, 43.0048, -37.8922
572, 57.300000000, 42.9596, -37.8708
573, 57.400000000, 42.9136, -37.8513
574, 57.500000000, 42.8668, -37.8336
575, 57.600000000, 42.8195, -37.8176
576, 57.700000000, 42.7716, -37.8031
577, 57.800000000, 42.7234, -37.7897
578, 57.900000000, 42.675, -37.7773
579, 58.000000000, 42.6264, -37.7657
580, 58.100000000, 42.5776, -37.7546
581, 58.200000000, 42.5288, -37.7441
582, 58.300000000, 42.4798, -37.7338
583, 58.400000000, 42.4308, -37.7238
584, 58.500000000, 42.3818, -37.7138
585, 58.600000000, 42.3328, -37.7039
586, 58.700000000, 42.2838, -37.6941
587, 58.800000000, 42.2347, -37.6845
588, 58.900000000, 42.1856, -37.6751
589, 59.000000000, 42.1365, -37.6659
590, 59.100000000, 42.0873, -37.6567
591, 59.200000000, 42.0381, -37.6477
592, 59.300000000, 41.9889, -37.6389
593, 59.400000000, 41.9397, -37.6303
594, 59.500000000, 41.8904, -37.6218
595, 59.600000000, 41.8411, -37.6133
596, 59.700000000, 41.7918, -37.605
597, 59.800000000, 41.7425, -37.5967
598, 59.900000000, 41.6932, -37.5885
599, 60.000000000, 41.6439, -37.5804
600, 60.100000000, 41.5945, -37.5724
601, 60.200000000, 41.5451, -37.5644
602, 60.300000000, 41.4958, -37.5566
603, 60.400000000, 41.4464, -37.5487
604, 60.500000000, 41.397, -37.541
605, 60.600000000, 41.3476, -37.5332
606, 60.700000000, 41.2982, -37.5256
607, 60.800000000, 41.2487, -37.5181
608, 60.900000000, 41.1993, -37.5106
609, 61.000000000, 41.1499, -37.503
610, 61.100000000, 41.1004, -37.4956
611, 61.200000000, 41.051, -37.4882
612, 61.300000000, 41.0015, -37.4809
613, 61.400000000, 40.9521, -37.4736
614, 61.500000000, 40.9026, -37.4662
615, 61.600000000, 40.8531, -37.4589
616, 61.700000000, 40.8037, -37.4515
617, 61.800000000, 40.7542, -37.4442
618, 61.900000000, 40.7048, -37.4369
619, 62.000000000, 40.6553, -37.4296
620, 62.100000000, 40.6058, -37.4226
621, 62.200000000, 40.5563, -37.4157
622, 62.300000000, 40.5067, -37.4089
623, 62.400000000, 40.4572, -37.4024
624, 62.500000000, 40.4076, -37.3959
625, 62.600000000, 40.358, -37.3895
626, 62.700000000, 40.3084, -37.3832
627, 62.800000000, 40.2588, -37.3769
628, 62.900000000, 40.2092, -37.3707
629, 63.000000000, 40.1596, -37.3645
630, 63.100000000, 40.1099, -37.3584
631, 63.200000000, 40.0603, -37.3524
632, 63.300000000, 40.0107, -37.3464
633, 63.400000000, 39.961, -37.3404
634, 63.500000000, 39.9114, -37.3344
635, 63.600000000, 39.8617, -37.3285
636, 63.700000000, 39.8121, -37.3226
637, 63.800000000, 39.7624, -37.3169
638, 63.900000000, 39.7127, -37.3111
639, 64.000000000, 39.6631, -37.3053
640, 64.100000000, 39.6134, -37.2995
641, 64.200000000, 39.5637, -37.2938
642, 64.300000000, 39.5141, -37.2881
643, 64.400000000, 39.4644, -37.2825
644, 64.500000000, 39.4147, -37.2769
645, 64.600000000, 39.365, -37.2713
646, 64.700000000, 39.3153, -37.2657
647, 64.800000000, 39.2656, -37.2601
648, 64.900000000, 39.2159, -37.2546
649, 65.000000000, 39.1663, -37.2491
650, 65.100000000, 39.1166, -37.2435
651, 65.200000000, 39.0669, -37.2378
652, 65.300000000, 39.0172, -37.232
653, 65.400000000, 38.9676, -37.2262
654, 65.500000000, 38.9179, -37.2204
655, 65.600000000, 38.8682, -37.2146
656, 65.700000000, 38.8186, -37.2088
657, 65.800000000, 38.7689, -37.203
658, 65.900000000, 38.7193, -37.1971
659, 66.000000000, 38.6696, -37.1912
660, 66.100000000, 38.62, -37.1853
661, 66.200000000, 38.5703, -37.1794
662, 66.300000000, 38.5207, -37.1735
663, 66.400000000, 38.471, -37.1677
664, 66.500000000, 38.4213, -37.1619
665, 66.600000000, 38.3717, -37.1562
666, 66.700000000, 38.322, -37.1505
667, 66.800000000, 38.2723, -37.1448
668, 66.900000000, 38.2226, -37.1392
669, 67.000000000, 38.1729, -37.1337
670, 67.100000000, 38.1232, -37.1283
671, 67.200000000, 38.0735, -37.1229
672, 67.300000000, 38.0238, -37.1175
673, 67.400000000, 37.9741, -37.1123
674, 67.500000000, 37.9244, -37.107
675, 67.600000000, 37.8746, -37.1019
676, 67.700000000, 37.8249, -37.0967
677, 67.800000000, 37.7752, -37.0915
678, 67.900000000, 37.7254, -37.0863
679, 68.000000000, 37.6757, -37.0812
680, 68.100000000, 37.6259, -37.0762
681, 68.200000000, 37.5762, -37.0711
682, 68.300000000, 37.5265, -37.0661
683, 68.400000000, 37.4767, -37.0611
684, 68.500000000, 37.427, -37.0562
685, 68.600000000, 37.3772, -37.0511
686, 68.700000000, 37.3275, -37.0461
687, 68.800000000, 37.2777, -37.0411
688, 68.900000000, 37.228, -37.036
689, 69.000000000, 37.1782, -37.031
690, 69.100000000, 37.1285, -37.0262
691, 69.200000000, 37.0787, -37.0215
692, 69.300000000, 37.0289, -37.0169
693, 69.400000000, 36.9791, -37.0124
694, 69.500000000, 36.9293, -37.0081
695, 69.600000000, 36.8795, -37.0039
696, 69.700000000, 36.8296, -36.9996
697, 69.800000000, 36.7798, -36.9953
698, 69.900000000, 36.73, -36.9911
699, 70.000000000, 36.6802, -36.9869
700, 70.100000000, 36.6303, -36.9828
701, 70.200000000, 36.5805, -36.9786
702, 70.300000000, 36.5307, -36.9744
703, 70.400000000, 36.4809, -36.9703
704, 70.500000000, 36.431, -36.9663
705, 70.600000000, 36.3812, -36.9623
706, 70.700000000, 36.3313, -36.9584
707, 70.800000000, 36.2815, -36.9544
708, 70.900000000, 36.2317, -36.9504
709, 71.000000000, 36.1818, -36.9463
710, 71.100000000, 36.1321, -36.9415
711, 71.200000000, 36.0823, -36.9362
712, 71.300000000, 36.0327, -36.9305
713, 71.400000000, 35.983, -36.9246
714, 71.500000000, 35.9334, -36.9185
715, 71.600000000, 35.8838, -36.9124
716, 71.700000000, 35.8341, -36.9063
717, 71.800000000, 35.7845, -36.9001
718, 71.900000000, 35.7349, -36.8939
719, 72.000000000, 35.6853, -36.8877
720, 72.100000000, 35.6357, -36.8816
721, 72.200000000, 35.5861, -36.8754
722, 72.300000000, 35.5364, -36.8691
723, 72.400000000, 35.4868, -36.8629
724, 72.500000000, 35.4372, -36.8567
725, 72.600000000, 35.3876, -36.8503
726, 72.700000000, 35.3381, -36.8438
727, 72.800000000, 35.2885, -36.8372
728, 72.900000000, 35.2389, -36.8305
729, 73.000000000, 35.1894, -36.8238
730, 73.100000000, 35.1398, -36.8171
731, 73.200000000, 35.0903, -36.8105
732, 73.300000000, 35.0407, -36.8038
733, 73.400000000, 34.9912, -36.797
734, 73.500000000, 34.9417, -36.7902
735, 73.600000000, 34.8921, -36.7834
736, 73.700000000, 34.8426, -36.7765
737, 73.800000000, 34.7931, -36.7696
738, 73.900000000, 34.7436, -36.7625
739, 74.000000000, 34.6941, -36.7554
740, 74.100000000, 34.6446, -36.7482
741, 74.200000000, 34.5952, -36.7409
742, 74.300000000, 34.5457, -36.7336
743, 74.400000000, 34.4962, -36.7263
744, 74.500000000, 34.4468, -36.7189
745, 74.600000000, 34.3973, -36.7117
746, 74.700000000, 34.3479, -36.7043
747, 74.800000000, 34.2984, -36.6967
748, 74.900000000, 34.249, -36.689
749, 75.000000000, 34.1997, -36.6811
750, 75.100000000, 34.1503, -36.6731
751, 75.200000000, 34.101, -36.6649
752, 75.300000000, 34.0517, -36.6567
753, 75.400000000, 34.0024, -36.6483
754, 75.500000000, 33.9531, -36.6398
755, 75.600000000, 33.9039, -36.6311
756, 75.700000000, 33.8547, -36.6222
757, 75.800000000, 33.8055, -36.6131
758, 75.900000000, 33.7563, -36.6039
759, 76.000000000, 33.7072, -36.5945
760, 76.100000000, 33.6582, -36.585
761, 76.200000000, 33.6091, -36.5753
762, 76.300000000, 33.5601, -36.5655
763, 76.400000000, 33.5111, -36.5555
764, 76.500000000, 33.4622, -36.5451
765, 76.600000000, 33.4133, -36.5345
766, 76.700000000, 33.3645, -36.5235
767, 76.800000000, 33.3158, -36.5122
768, 76.900000000, 33.2672, -36.5007
769, 77.000000000, 33.2186, -36.4888
770, 77.100000000, 33.1701, -36.4766
771, 77.200000000, 33.1217, -36.4641
772, 77.300000000, 33.0734, -36.4512
773, 77.400000000, 33.0252, -36.4379
774, 77.500000000, 32.9771, -36.4242
775, 77.600000000, 32.9291, -36.4103
776, 77.700000000, 32.8812, -36.3961
777, 77.800000000, 32.8333, -36.3815
778, 77.900000000, 32.7855, -36.3668
779, 78.000000000, 32.7378, -36.3518
780, 78.100000000, 32.6902, -36.3365
781, 78.200000000, 32.6427, -36.3209
782, 78.300000000, 32.5953, -36.3052
783, 78.400000000, 32.5478, -36.2893
784, 78.500000000, 32.5004, -36.2735
785, 78.600000000, 32.4529, -36.2579
786, 78.700000000, 32.4054, -36.2423
787, 78.800000000, 32.3579, -36.2268
788, 78.900000000, 32.3103, -36.2115
789, 79.000000000, 32.2626, -36.1962
790, 79.100000000, 32.215, -36.1811
791, 79.200000000, 32.1673, -36.1661
792, 79.300000000, 32.1196, -36.1512
793, 79.400000000, 32.0718, -36.1364
794, 79.500000000, 32.024, -36.1218
795, 79.600000000, 31.9762, -36.1072
796, 79.700000000, 31.9283, -36.0928
797, 79.800000000, 31.8804, -36.0784
798, 79.900000000, 31.8325, -36.064
799, 80.000000000, 31.7847, -36.0495
800, 80.100000000, 31.7369, -36.0349
801, 80.200000000, 31.6891, -36.02
802, 80.300000000, 31.6414, -36.005
803, 80.400000000, 31.5939, -35.9896
804, 80.500000000, 31.5464, -35.974
805, 80.600000000, 31.4989, -35.9581
806, 80.700000000, 31.4516, -35.9419
807, 80.800000000, 31.4044, -35.9254
808, 80.900000000, 31.3573, -35.9086
809, 81.000000000, 31.3104, -35.8915
810, 81.100000000, 31.2635, -35.8741
811, 81.200000000, 31.2168, -35.8564
812, 81.300000000, 31.1701, -35.8383
813, 81.400000000, 31.1236, -35.8199
814, 81.500000000, 31.0773, -35.8012
815, 81.600000000, 31.031, -35.7821
816, 81.700000000, 30.985, -35.7627
817, 81.800000000, 30.939, -35.743
818, 81.900000000, 30.8932, -35.723
819, 82.000000000, 30.8475, -35.7026
820, 82.100000000, 30.802, -35.6818
821, 82.200000000, 30.7567, -35.6608
822, 82.300000000, 30.7115, -35.6393
823, 82.400000000, 30.6666, -35.6175
824, 82.500000000, 30.6218, -35.5953
825, 82.600000000, 30.5772, -35.5727
826, 82.700000000, 30.5328, -35.5496
827, 82.800000000, 30.4887, -35.5261
828, 82.900000000, 30.4448, -35.5022
829, 83.000000000, 30.4011, -35.4778
830, 83.100000000, 30.3577, -35.453
831, 83.200000000, 30.3146, -35.4277
832, 83.300000000, 30.2718, -35.4019
833, 83.400000000, 30.2293, -35.3755
834, 83.500000000, 30.1871, -35.3487
835, 83.600000000, 30.1452, -35.3214
836, 83.700000000, 30.1036, -35.2937
837, 83.800000000, 30.0623, -35.2655
838, 83.900000000, 30.0213, -35.2369
839, 84.000000000, 29.9805, -35.2079
840, 84.100000000, 29.9401, -35.1785
841, 84.200000000, 29.8999, -35.1487
842, 84.300000000, 29.8598, -35.1189
843, 84.400000000, 29.8184, -35.0909
844, 84.500000000, 29.773, -35.0698
845, 84.600000000, 29.725, -35.056
846, 84.700000000, 29.6753, -35.05
847, 84.800000000, 29.6263, -35.0401
848, 84.900000000, 29.5787, -35.025
849, 85.000000000, 29.5328, -35.0051
850, 85.100000000, 29.4887, -34.9816
851, 85.200000000, 29.4462, -34.9551
852, 85.300000000, 29.4052, -34.9265
853, 85.400000000, 29.3655, -34.8961
854, 85.500000000, 29.3268, -34.8645
855, 85.600000000, 29.2886, -34.8322
856, 85.700000000, 29.2512, -34.799
857, 85.800000000, 29.2146, -34.765
858, 85.900000000, 29.1785, -34.7304
859, 86.000000000, 29.1429, -34.6953
860, 86.100000000, 29.1078, -34.6596
861, 86.200000000, 29.0732, -34.6235
862, 86.300000000, 29.039, -34.5871
863, 86.400000000, 29.0052, -34.5502
864, 86.500000000, 28.9719, -34.513
865, 86.600000000, 28.9388, -34.4754
866, 86.700000000, 28.9062, -34.4376
867, 86.800000000, 28.8739, -34.3994
868, 86.900000000, 28.842, -34.3609
869, 87.000000000, 28.8105, -34.3221
870, 87.100000000, 28.7794, -34.2829
871, 87.200000000, 28.7487, -34.2435
872, 87.300000000, 28.7184, -34.2037
873, 87.400000000, 28.6885, -34.1636
874, 87.500000000, 28.659, -34.1232
875, 87.600000000, 28.6297, -34.0827
876, 87.700000000, 28.6006, -34.0421
877, 87.800000000, 28.5716, -34.0013
878, 87.900000000, 28.5428, -33.9604
879, 88.000000000, 28.5141, -33.9195
880, 88.100000000, 28.4856, -33.8784
881, 88.200000000, 28.4573, -33.8372
882, 88.300000000, 28.4292, -33.7958
883, 88.400000000, 28.4015, -33.7542
884, 88.500000000, 28.374, -33.7124
885, 88.600000000, 28.3471, -33.6703
886, 88.700000000, 28.3206, -33.6279
887, 88.800000000, 28.2946, -33.5852
888, 88.900000000, 28.2691, -33.5422
889, 89.000000000, 28.2442, -33.4988
890, 89.100000000, 28.2263, -33.4521
891, 89.200000000, 28.216, -33.4032
892, 89.300000000, 28.2135, -33.3533
893, 89.400000000, 28.2188, -33.3036
894, 89.500000000, 28.2318, -33.2553
895, 89.600000000, 28.2382, -33.2057
896, 89.700000000, 28.2368, -33.1557
897, 89.800000000, 28.2432, -33.1061
898, 89.900000000, 28.2426, -33.0561
899, 90.000000000, 28.2498, -33.0067
900, 90.100000000, 28.2515, -32.9567
901, 90.200000000, 28.2454, -32.9071
902, 90.300000000, 28.2471, -32.8571
903, 90.400000000, 28.241, -32.8075
904, 90.500000000, 28.2427, -32.7575
905, 90.600000000, 28.2406, -32.7075
906, 90.700000000, 28.234, -32.658
907, 90.800000000, 28.2317, -32.608
908, 90.900000000, 28.2265, -32.5583
909, 91.000000000, 28.2185, -32.5089
910, 91.100000000, 28.2089, -32.4599
911, 91.200000000, 28.1987, -32.4109
912, 91.300000000, 28.1883, -32.362
913, 91.400000000, 28.178, -32.3131
914, 91.500000000, 28.1678, -32.2641
915, 91.600000000, 28.1576, -32.2152
916, 91.700000000, 28.1475, -32.1662
917, 91.800000000, 28.1376, -32.1172
918, 91.900000000, 28.1277, -32.0682
919, 92.000000000, 28.1178, -32.0192
920, 92.100000000, 28.1078, -31.9702
921, 92.200000000, 28.0978, -31.9212
922, 92.300000000, 28.0877, -31.8722
923, 92.400000000, 28.0776, -31.8233
924, 92.500000000, 28.0673, -31.7743
925, 92.600000000, 28.0568, -31.7255
926, 92.700000000, 28.0459, -31.6767
927, 92.800000000, 28.035, -31.6279
928, 92.900000000, 28.024, -31.5791
929, 93.000000000, 28.013, -31.5303
930, 93.100000000, 28.0023, -31.4815
931, 93.200000000, 27.9918, -31.4326
932, 93.300000000, 27.9817, -31.3836
933, 93.400000000, 27.9719, -31.3346
