Sequence, time(s), pose_x(m), pose_y(m)
378, 37.900000000, 23.901, -54.617
396, 39.700000000, 23.852, -54.6268
397, 39.800000000, 23.802, -54.6289
398, 39.900000000, 23.7524, -54.623
399, 40.000000000, 23.7042, -54.6095
400, 40.100000000, 23.6582, -54.5899
401, 40.200000000, 23.6147, -54.5653
402, 40.300000000, 23.5738, -54.5365
403, 40.400000000, 23.5355, -54.5044
404, 40.500000000, 23.4996, -54.4695
405, 40.600000000, 23.4661, -54.4325
406, 40.700000000, 23.4346, -54.3937
407, 40.800000000, 23.4048, -54.3535
408, 40.900000000, 23.3765, -54.3123
409, 41.000000000, 23.3493, -54.2703
410, 41.100000000, 23.3231, -54.2277
411, 41.200000000, 23.2978, -54.1846
412, 41.300000000, 23.2731, -54.1411
413, 41.400000000, 23.249, -54.0973
414, 41.500000000, 23.2255, -54.0532
415, 41.600000000, 23.2024, -54.0089
416, 41.700000000, 23.1797, -53.9643
417, 41.800000000, 23.1573, -53.9196
418, 41.900000000, 23.1353, -53.8747
419, 42.000000000, 23.1137, -53.8296
420, 42.100000000, 23.0923, -53.7844
421, 42.200000000, 23.0712, -53.7391
422, 42.300000000, 23.0504, -53.6936
423, 42.400000000, 23.0298, -53.648
424, 42.500000000, 23.0095, -53.6023
425, 42.600000000, 22.9895, -53.5565
426, 42.700000000, 22.9697, -53.5106
427, 42.800000000, 22.9501, -53.4646
428, 42.900000000, 22.9308, -53.4185
429, 43.000000000, 22.9118, -53.3723
430, 43.100000000, 22.893, -53.3259
431, 43.200000000, 22.8744, -53.2795
432, 43.300000000, 22.8561, -53.233
433, 43.400000000, 22.8381, -53.1863
434, 43.500000000, 22.8203, -53.1396
435, 43.600000000, 22.8028, -53.0928
436, 43.700000000, 22.7855, -53.0459
437, 43.800000000, 22.7685, -52.9988
438, 43.900000000, 22.7517, -52.9517
439, 44.000000000, 22.7352, -52.9045
440, 44.100000000, 22.7188, -52.8573
441, 44.200000000, 22.7026, -52.81
442, 44.300000000, 22.6865, -52.7627
443, 44.400000000, 22.6705, -52.7153
444, 44.500000000, 22.6546, -52.6679
445, 44.600000000, 22.6389, -52.6204
446, 44.700000000, 22.6231, -52.573
447, 44.800000000, 22.6075, -52.5255
448, 44.900000000, 22.5919, -52.478
449, 45.000000000, 22.5764, -52.4304
450, 45.100000000, 22.5609, -52.3829
451, 45.200000000, 22.5456, -52.3353
452, 45.300000000, 22.5304, -52.2877
453, 45.400000000, 22.5155, -52.2399
454, 45.500000000, 22.5008, -52.1922
455, 45.600000000, 22.4864, -52.1443
456, 45.700000000, 22.4724, -52.0963
457, 45.800000000, 22.4586, -52.0482
458, 45.900000000, 22.4451, -52.0001
459, 46.000000000, 22.4319, -51.9518
460, 46.100000000, 22.419, -51.9035
461, 46.200000000, 22.4062, -51.8552
462, 46.300000000, 22.3937, -51.8068
463, 46.400000000, 22.3813, -51.7583
464, 46.500000000, 22.3691, -51.7099
465, 46.600000000, 22.3571, -51.6613
466, 46.700000000, 22.3452, -51.6128
467, 46.800000000, 22.3334, -51.5642
468, 46.900000000, 22.3217, -51.5155
469, 47.000000000, 22.3102, -51.4669
470, 47.100000000, 22.2988, -51.4182
471, 47.200000000, 22.2874, -51.3695
472, 47.300000000, 22.2762, -51.3208
473, 47.400000000, 22.265, -51.2721
474, 47.500000000, 22.2539, -51.2233
475, 47.600000000, 22.2428, -51.1746
476, 47.700000000, 22.2319, -51.1258
477, 47.800000000, 22.221, -51.077
478, 47.900000000, 22.2101, -51.0282
479, 48.000000000, 22.1993, -50.9794
480, 48.100000000, 22.1886, -50.9305
481, 48.200000000, 22.1779, -50.8817
482, 48.300000000, 22.1673, -50.8328
483, 48.400000000, 22.1568, -50.7839
484, 48.500000000, 22.1464, -50.735
485, 48.600000000, 22.136, -50.6861
486, 48.700000000, 22.1257, -50.6372
487, 48.800000000, 22.1155, -50.5882
488, 48.900000000, 22.1053, -50.5393
489, 49.000000000, 22.0952, -50.4903
490, 49.100000000, 22.0851, -50.4413
491, 49.200000000, 22.0752, -50.3923
492, 49.300000000, 22.0652, -50.3433
493, 49.400000000, 22.0554, -50.2943
494, 49.500000000, 22.0455, -50.2453
495, 49.600000000, 22.0358, -50.1963
496, 49.700000000, 22.0262, -50.1472
497, 49.800000000, 22.0165, -50.0981
498, 49.900000000, 22.007, -50.0491
499, 50.000000000, 21.9975, -50
500, 50.100000000, 21.9881, -49.9508
501, 50.200000000, 21.9789, -49.9017
502, 50.300000000, 21.9698, -49.8525
503, 50.400000000, 21.9609, -49.8033
504, 50.500000000, 21.9522, -49.7541
505, 50.600000000, 21.9437, -49.7048
506, 50.700000000, 21.9353, -49.6555
507, 50.800000000, 21.9271, -49.6062
508, 50.900000000, 21.9191, -49.5569
509, 51.000000000, 21.9111, -49.5075
510, 51.100000000, 21.9033, -49.4581
511, 51.200000000, 21.8956, -49.4087
512, 51.300000000, 21.888, -49.3593
513, 51.400000000, 21.8805, -49.3099
514, 51.500000000, 21.873, -49.2604
515, 51.600000000, 21.8657, -49.211
516, 51.700000000, 21.8583, -49.1615
517, 51.800000000, 21.8509, -49.1121
518, 51.900000000, 21.8435, -49.0626
519, 52.000000000, 21.8359, -49.0132
520, 52.100000000, 21.8282, -48.9638
521, 52.200000000, 21.8202, -48.9144
522, 52.300000000, 21.8119, -48.8651
523, 52.400000000, 21.8034, -48.8159
524, 52.500000000, 21.7946, -48.7666
525, 52.600000000, 21.7855, -48.7175
526, 52.700000000, 21.7761, -48.6684
527, 52.800000000, 21.7664, -48.6193
528, 52.900000000, 21.7564, -48.5703
529, 53.000000000, 21.746, -48.5214
530, 53.100000000, 21.7354, -48.4726
531, 53.200000000, 21.7243, -48.4238
532, 53.300000000, 21.713, -48.3751
533, 53.400000000, 21.7014, -48.3265
534, 53.500000000, 21.6893, -48.2779
535, 53.600000000, 21.677, -48.2295
536, 53.700000000, 21.6644, -48.1811
537, 53.800000000, 21.6516, -48.1328
538, 53.900000000, 21.6385, -48.0845
539, 54.000000000, 21.6254, -48.0363
540, 54.100000000, 21.612, -47.9881
541, 54.200000000, 21.5986, -47.9399
542, 54.300000000, 21.5851, -47.8918
543, 54.400000000, 21.5714, -47.8437
544, 54.500000000, 21.5578, -47.7956
545, 54.600000000, 21.544, -47.7475
546, 54.700000000, 21.5302, -47.6994
547, 54.800000000, 21.5164, -47.6514
548, 54.900000000, 21.5026, -47.6033
549, 55.000000000, 21.4888, -47.5553
550, 55.100000000, 21.4749, -47.5072
551, 55.200000000, 21.461, -47.4592
552, 55.300000000, 21.4471, -47.4112
553, 55.400000000, 21.4333, -47.3631
554, 55.500000000, 21.4194, -47.3151
555, 55.600000000, 21.4055, -47.2671
556, 55.700000000, 21.3917, -47.219
557, 55.800000000, 21.3778, -47.171
558, 55.900000000, 21.364, -47.1229
559, 56.000000000, 21.3502, -47.0749
560, 56.100000000, 21.3365, -47.0268
561, 56.200000000, 21.3305, -46.9771
562, 56.300000000, 21.3322, -46.9272
563, 56.400000000, 21.3418, -46.8781
564, 56.500000000, 21.359, -46.8311
565, 56.600000000, 21.3833, -46.7874
566, 56.700000000, 21.4141, -46.7481
567, 56.800000000, 21.4507, -46.714
568, 56.900000000, 21.4815, -46.6746
569, 57.000000000, 21.5181, -46.6405
570, 57.100000000, 21.5506, -46.6025
571, 57.200000000, 21.5767, -46.5599
572, 57.300000000, 21.6092, -46.5219
573, 57.400000000, 21.6378, -46.4809
574, 57.500000000, 21.6595, -46.4358
575, 57.600000000, 21.688, -46.3948
576, 57.700000000, 21.7128, -46.3513
577, 57.800000000, 21.7305, -46.3046
578, 57.900000000, 21.7552, -46.2611
579, 58.000000000, 21.7765, -46.2159
580, 58.100000000, 21.7904, -46.1679
581, 58.200000000, 21.8117, -46.1226
582, 58.300000000, 21.8298, -46.076
583, 58.400000000, 21.8437, -46.028
584, 58.500000000, 21.8499, -45.9784
585, 58.600000000, 21.8639, -45.9303
586, 58.700000000, 21.8753, -45.8817
587, 58.800000000, 21.879, -45.8318
588, 58.900000000, 21.8905, -45.7831
589, 59.000000000, 21.8997, -45.734
590, 59.100000000, 21.9057, -45.6844
591, 59.200000000, 21.9089, -45.6345
592, 59.300000000, 21.9042, -45.5847
593, 59.400000000, 21.9073, -45.5348
594, 59.500000000, 21.9092, -45.4848
595, 59.600000000, 21.9088, -45.4348
596, 59.700000000, 21.9064, -45.3849
597, 59.800000000, 21.9021, -45.3351
598, 59.900000000, 21.8964, -45.2854
599, 60.000000000, 21.8893, -45.2359
600, 60.100000000, 21.8811, -45.1866
601, 60.200000000, 21.8719, -45.1374
602, 60.300000000, 21.8618, -45.0884
603, 60.400000000, 21.8509, -45.0397
604, 60.500000000, 21.8393, -44.991
605, 60.600000000, 21.827, -44.9426
606, 60.700000000, 21.8141, -44.8942
607, 60.800000000, 21.8007, -44.8461
608, 60.900000000, 21.7867, -44.7981
609, 61.000000000, 21.7723, -44.7502
610, 61.100000000, 21.7575, -44.7024
611, 61.200000000, 21.7423, -44.6548
612, 61.300000000, 21.7269, -44.6072
613, 61.400000000, 21.7111, -44.5598
614, 61.500000000, 21.6952, -44.5124
615, 61.600000000, 21.6791, -44.4651
616, 61.700000000, 21.6628, -44.4178
617, 61.800000000, 21.6464, -44.3706
618, 61.900000000, 21.6298, -44.3234
619, 62.000000000, 21.6131, -44.2762
620, 62.100000000, 21.5963, -44.2291
621, 62.200000000, 21.5795, -44.1821
622, 62.300000000, 21.5626, -44.135
623, 62.400000000, 21.5456, -44.088
624, 62.500000000, 21.5285, -44.041
625, 62.600000000, 21.5114, -43.994
626, 62.700000000, 21.4943, -43.947
627, 62.800000000, 21.4771, -43.9001
628, 62.900000000, 21.4599, -43.8531
629, 63.000000000, 21.4427, -43.8062
630, 63.100000000, 21.4254, -43.7593
631, 63.200000000, 21.4082, -43.7123
632, 63.300000000, 21.3909, -43.6654
633, 63.400000000, 21.3736, -43.6185
634, 63.500000000, 21.3562, -43.5716
635, 63.600000000, 21.3389, -43.5247
636, 63.700000000, 21.3216, -43.4778
637, 63.800000000, 21.3042, -43.4309
638, 63.900000000, 21.2868, -43.384
639, 64.000000000, 21.2695, -43.3372
640, 64.100000000, 21.2521, -43.2903
641, 64.200000000, 21.2347, -43.2434
642, 64.300000000, 21.2174, -43.1965
643, 64.400000000, 21.2, -43.1496
644, 64.500000000, 21.1826, -43.1027
645, 64.600000000, 21.1652, -43.0559
646, 64.700000000, 21.1478, -43.009
647, 64.800000000, 21.1304, -42.9621
648, 64.900000000, 21.113, -42.9152
649, 65.000000000, 21.0956, -42.8684
650, 65.100000000, 21.0782, -42.8215
651, 65.200000000, 21.0608, -42.7746
652, 65.300000000, 21.0434, -42.7277
653, 65.400000000, 21.026, -42.6809
654, 65.500000000, 21.0086, -42.634
655, 65.600000000, 20.9912, -42.5871
656, 65.700000000, 20.9738, -42.5403
657, 65.800000000, 20.9563, -42.4934
658, 65.900000000, 20.9389, -42.4465
659, 66.000000000, 20.9215, -42.3996
660, 66.100000000, 20.9041, -42.3528
661, 66.200000000, 20.8867, -42.3059
662, 66.300000000, 20.8693, -42.259
663, 66.400000000, 20.8519, -42.2122
664, 66.500000000, 20.8345, -42.1653
665, 66.600000000, 20.8171, -42.1184
666, 66.700000000, 20.7997, -42.0715
667, 66.800000000, 20.7822, -42.0247
668, 66.900000000, 20.7648, -41.9778
669, 67.000000000, 20.7474, -41.9309
670, 67.100000000, 20.73, -41.8841
671, 67.200000000, 20.7126, -41.8372
672, 67.300000000, 20.6952, -41.7903
673, 67.400000000, 20.6778, -41.7434
674, 67.500000000, 20.6604, -41.6966
675, 67.600000000, 20.643, -41.6497
676, 67.700000000, 20.6255, -41.6028
677, 67.800000000, 20.6081, -41.556
678, 67.900000000, 20.5907, -41.5091
679, 68.000000000, 20.5733, -41.4622
680, 68.100000000, 20.5559, -41.4154
681, 68.200000000, 20.5385, -41.3685
682, 68.300000000, 20.5211, -41.3216
683, 68.400000000, 20.5037, -41.2747
684, 68.500000000, 20.4863, -41.2279
685, 68.600000000, 20.4688, -41.181
686, 68.700000000, 20.4514, -41.1341
687, 68.800000000, 20.434, -41.0873
688, 68.900000000, 20.4166, -41.0404
689, 69.000000000, 20.3992, -40.9935
690, 69.100000000, 20.3818, -40.9466
691, 69.200000000, 20.3644, -40.8998
692, 69.300000000, 20.347, -40.8529
693, 69.400000000, 20.3296, -40.806
694, 69.500000000, 20.3121, -40.7592
695, 69.600000000, 20.2947, -40.7123
696, 69.700000000, 20.2773, -40.6654
697, 69.800000000, 20.2599, -40.6186
698, 69.900000000, 20.2425, -40.5717
699, 70.000000000, 20.2251, -40.5248
700, 70.100000000, 20.2077, -40.4779
701, 70.200000000, 20.1903, -40.4311
702, 70.300000000, 20.1728, -40.3842
703, 70.400000000, 20.1554, -40.3373
704, 70.500000000, 20.138, -40.2905
705, 70.600000000, 20.1206, -40.2436
706, 70.700000000, 20.1032, -40.1967
707, 70.800000000, 20.0858, -40.1499
708, 70.900000000, 20.0684, -40.103
709, 71.000000000, 20.051, -40.0561
710, 71.100000000, 20.0336, -40.0092
711, 71.200000000, 20.0161, -39.9624
712, 71.300000000, 19.9987, -39.9155
713, 71.400000000, 19.9813, -39.8686
714, 71.500000000, 19.9639, -39.8218
715, 71.600000000, 19.9465, -39.7749
716, 71.700000000, 19.9291, -39.728
717, 71.800000000, 19.9117, -39.6811
718, 71.900000000, 19.8943, -39.6343
719, 72.000000000, 19.8768, -39.5874
720, 72.100000000, 19.8594, -39.5405
721, 72.200000000, 19.842, -39.4937
722, 72.300000000, 19.8246, -39.4468
723, 72.400000000, 19.8072, -39.3999
724, 72.500000000, 19.7898, -39.3531
725, 72.600000000, 19.7724, -39.3062
726, 72.700000000, 19.755, -39.2593
727, 72.800000000, 19.7376, -39.2124
728, 72.900000000, 19.7201, -39.1656
729, 73.000000000, 19.7027, -39.1187
730, 73.100000000, 19.6853, -39.0718
731, 73.200000000, 19.6679, -39.025
732, 73.300000000, 19.6505, -38.9781
733, 73.400000000, 19.6331, -38.9312
734, 73.500000000, 19.6157, -38.8844
735, 73.600000000, 19.5983, -38.8375
736, 73.700000000, 19.5808, -38.7906
737, 73.800000000, 19.5634, -38.7437
738, 73.900000000, 19.546, -38.6969
739, 74.000000000, 19.5286, -38.65
740, 74.100000000, 19.5112, -38.6031
741, 74.200000000, 19.4938, -38.5563
742, 74.300000000, 19.4764, -38.5094
743, 74.400000000, 19.459, -38.4625
744, 74.500000000, 19.4416, -38.4156
745, 74.600000000, 19.4241, -38.3688
746, 74.700000000, 19.4067, -38.3219
747, 74.800000000, 19.3893, -38.275
748, 74.900000000, 19.3719, -38.2282
749, 75.000000000, 19.3545, -38.1813
750, 75.100000000, 19.3371, -38.1344
751, 75.200000000, 19.3197, -38.0876
752, 75.300000000, 19.3023, -38.0407
753, 75.400000000, 19.2849, -37.9938
754, 75.500000000, 19.2674, -37.9469
755, 75.600000000, 19.2499, -37.9001
756, 75.700000000, 19.2321, -37.8534
757, 75.800000000, 19.2139, -37.8068
758, 75.900000000, 19.1951, -37.7605
759, 76.000000000, 19.1756, -37.7144
760, 76.100000000, 19.1554, -37.6687
761, 76.200000000, 19.1344, -37.6233
762, 76.300000000, 19.1126, -37.5784
763, 76.400000000, 19.0897, -37.5339
764, 76.500000000, 19.0657, -37.49
765, 76.600000000, 19.0407, -37.4468
766, 76.700000000, 19.0145, -37.4041
767, 76.800000000, 18.9875, -37.3621
768, 76.900000000, 18.9591, -37.3209
769, 77.000000000, 18.9294, -37.2807
770, 77.100000000, 18.8985, -37.2414
771, 77.200000000, 18.8664, -37.2031
772, 77.300000000, 18.8329, -37.166
773, 77.400000000, 18.798, -37.1301
774, 77.500000000, 18.7619, -37.0955
775, 77.600000000, 18.7244, -37.0624
776, 77.700000000, 18.6858, -37.0307
777, 77.800000000, 18.6464, -36.9998
778, 77.900000000, 18.607, -36.9691
779, 78.000000000, 18.5678, -36.938
780, 78.100000000, 18.5292, -36.9063
781, 78.200000000, 18.4907, -36.8744
782, 78.300000000, 18.4524, -36.8423
783, 78.400000000, 18.4143, -36.8099
784, 78.500000000, 18.3764, -36.7773
785, 78.600000000, 18.3388, -36.7443
786, 78.700000000, 18.3014, -36.7112
787, 78.800000000, 18.264, -36.678
788, 78.900000000, 18.2271, -36.6442
789, 79.000000000, 18.1908, -36.6098
790, 79.100000000, 18.1549, -36.575
791, 79.200000000, 18.1186, -36.5406
792, 79.300000000, 18.0825, -36.506
793, 79.400000000, 18.0474, -36.4704
794, 79.500000000, 18.0131, -36.4341
795, 79.600000000, 17.9787, -36.3977
796, 79.700000000, 17.944, -36.3617
797, 79.800000000, 17.9097, -36.3253
798, 79.900000000, 17.8771, -36.2874
799, 80.000000000, 17.8463, -36.2481
800, 80.100000000, 17.813, -36.2108
801, 80.200000000, 17.7781, -36.175
802, 80.300000000, 17.7458, -36.1368
803, 80.400000000, 17.7198, -36.0941
804, 80.500000000, 17.7007, -36.0479
805, 80.600000000, 17.6891, -35.9992
806, 80.700000000, 17.6847, -35.9494
807, 80.800000000, 17.6832, -35.8995
808, 80.900000000, 17.6739, -35.8503
809, 81.000000000, 17.6571, -35.8032
810, 81.100000000, 17.6331, -35.7594
811, 81.200000000, 17.6025, -35.7198
812, 81.300000000, 17.5711, -35.6809
813, 81.400000000, 17.5451, -35.6382
814, 81.500000000, 17.5256, -35.5922
815, 81.600000000, 17.5095, -35.5448
816, 81.700000000, 17.4912, -35.4983
817, 81.800000000, 17.468, -35.454
818, 81.900000000, 17.4418, -35.4114
819, 82.000000000, 17.4176, -35.3677
820, 82.100000000, 17.3974, -35.3219
821, 82.200000000, 17.3795, -35.2753
822, 82.300000000, 17.3545, -35.2319
823, 82.400000000, 17.3231, -35.1931
824, 82.500000000, 17.2859, -35.1596
825, 82.600000000, 17.244, -35.1324
826, 82.700000000, 17.1983, -35.112
827, 82.800000000, 17.15, -35.099
828, 82.900000000, 17.1003, -35.0938
829, 83.000000000, 17.0504, -35.0964
830, 83.100000000, 17.0015, -35.1068
831, 83.200000000, 16.9548, -35.1247
832, 83.300000000, 16.9115, -35.1496
833, 83.400000000, 16.8648, -35.1675
834, 83.500000000, 16.8215, -35.1925
835, 83.600000000, 16.7748, -35.2104
836, 83.700000000, 16.7259, -35.2208
837, 83.800000000, 16.6792, -35.2387
838, 83.900000000, 16.6303, -35.2491
839, 84.000000000, 16.5836, -35.267
840, 84.100000000, 16.5347, -35.2774
841, 84.200000000, 16.4848, -35.28
842, 84.300000000, 16.4358, -35.2903
843, 84.400000000, 16.3859, -35.2929
844, 84.500000000, 16.337, -35.3033
845, 84.600000000, 16.2871, -35.3059
846, 84.700000000, 16.2382, -35.3163
847, 84.800000000, 16.1882, -35.3189
848, 84.900000000, 16.1385, -35.3136
849, 85.000000000, 16.0886, -35.3162
850, 85.100000000, 16.0388, -35.311
851, 85.200000000, 15.9889, -35.3136
852, 85.300000000, 15.94, -35.324
853, 85.400000000, 15.8901, -35.3266
854, 85.500000000, 15.8403, -35.3213
855, 85.600000000, 15.792, -35.3084
856, 85.700000000, 15.7423, -35.3031
857, 85.800000000, 15.6924, -35.3057
858, 85.900000000, 15.6435, -35.3161
859, 86.000000000, 15.5935, -35.3187
860, 86.100000000, 15.5438, -35.3134
861, 86.200000000, 15.4939, -35.316
862, 86.300000000, 15.445, -35.3264
863, 86.400000000, 15.395, -35.329
864, 86.500000000, 15.3453, -35.3238
865, 86.600000000, 15.2954, -35.3264
866, 86.700000000, 15.2465, -35.3367
867, 86.800000000, 15.1965, -35.3393
868, 86.900000000, 15.1468, -35.3341
869, 87.000000000, 15.0969, -35.3367
870, 87.100000000, 15.0472, -35.3314
871, 87.200000000, 14.9972, -35.334
872, 87.300000000, 14.9483, -35.3444
873, 87.400000000, 14.8984, -35.347
874, 87.500000000, 14.8487, -35.3418
875, 87.600000000, 14.8004, -35.3288
876, 87.700000000, 14.7507, -35.3236
877, 87.800000000, 14.7007, -35.3262
878, 87.900000000, 14.6518, -35.3365
879, 88.000000000, 14.6019, -35.3391
880, 88.100000000, 14.5521, -35.3339
881, 88.200000000, 14.5022, -35.3365
882, 88.300000000, 14.4525, -35.3312
883, 88.400000000, 14.4026, -35.3338
884, 88.500000000, 14.3536, -35.3442
885, 88.600000000, 14.3037, -35.3468
886, 88.700000000, 14.254, -35.3416
887, 88.800000000, 14.2057, -35.3286
888, 88.900000000, 14.156, -35.3234
889, 89.000000000, 14.106, -35.326
890, 89.100000000, 14.0563, -35.3207
891, 89.200000000, 14.008, -35.3078
892, 89.300000000, 13.9583, -35.3025
893, 89.400000000, 13.9084, -35.3051
894, 89.500000000, 13.8595, -35.3155
895, 89.600000000, 13.8095, -35.3181
896, 89.700000000, 13.7598, -35.3128
897, 89.800000000, 13.7099, -35.3154
898, 89.900000000, 13.661, -35.3258
899, 90.000000000, 13.611, -35.3284
900, 90.100000000, 13.5613, -35.3232
901, 90.200000000, 13.513, -35.3102
902, 90.300000000, 13.4633, -35.305
903, 90.400000000, 13.4134, -35.3076
904, 90.500000000, 13.3644, -35.3179
905, 90.600000000, 13.3145, -35.3205
906, 90.700000000, 13.2648, -35.3153
907, 90.800000000, 13.2149, -35.3179
908, 90.900000000, 13.1651, -35.3126
909, 91.000000000, 13.1152, -35.3152
910, 91.100000000, 13.0663, -35.3256
911, 91.200000000, 13.0164, -35.3282
912, 91.300000000, 12.9666, -35.323
913, 91.400000000, 12.9183, -35.31
914, 91.500000000, 12.8686, -35.3048
915, 91.600000000, 12.8187, -35.3074
916, 91.700000000, 12.7698, -35.3177
917, 91.800000000, 12.7198, -35.3203
918, 91.900000000, 12.6701, -35.3151
919, 92.000000000, 12.6202, -35.3177
920, 92.100000000, 12.5705, -35.3124
921, 92.200000000, 12.5205, -35.315
922, 92.300000000, 12.4708, -35.3098
923, 92.400000000, 12.4209, -35.3124
924, 92.500000000, 12.372, -35.3228
925, 92.600000000, 12.3253, -35.3407
926, 92.700000000, 12.2764, -35.351
927, 92.800000000, 12.2264, -35.3536
928, 92.900000000, 12.1767, -35.3484
929, 93.000000000, 12.1284, -35.3354
930, 93.100000000, 12.0827, -35.3151
931, 93.200000000, 12.0345, -35.3021
932, 93.300000000, 11.9847, -35.2969
933, 93.400000000, 11.9348, -35.2995
934, 93.500000000, 11.8851, -35.2942
935, 93.600000000, 11.8351, -35.2968
936, 93.700000000, 11.7854, -35.2916
