Sequence, time(s), pose_x(m), pose_y(m)
159, 16.000000000, 56.736, -39.682
166, 16.700000000, 56.7333, -39.7319
167, 16.800000000, 56.7228, -39.7808
168, 16.900000000, 56.7048, -39.8275
169, 17.000000000, 56.6797, -39.8707
170, 17.100000000, 56.6482, -39.9095
171, 17.200000000, 56.611, -39.9429
172, 17.300000000, 56.569, -39.9701
173, 17.400000000, 56.5233, -39.9903
174, 17.500000000, 56.475, -40.0032
175, 17.600000000, 56.4252, -40.0083
176, 17.700000000, 56.3753, -40.0056
177, 17.800000000, 56.3264, -39.9951
178, 17.900000000, 56.2782, -39.982
179, 18.000000000, 56.2304, -39.9672
180, 18.100000000, 56.1832, -39.9509
181, 18.200000000, 56.1363, -39.9334
182, 18.300000000, 56.0899, -39.9148
183, 18.400000000, 56.0438, -39.8954
184, 18.500000000, 55.9981, -39.8751
185, 18.600000000, 55.9527, -39.8542
186, 18.700000000, 55.9075, -39.8328
187, 18.800000000, 55.8626, -39.8108
188, 18.900000000, 55.8179, -39.7883
189, 19.000000000, 55.7734, -39.7655
190, 19.100000000, 55.7291, -39.7424
191, 19.200000000, 55.6849, -39.719
192, 19.300000000, 55.6409, -39.6953
193, 19.400000000, 55.5969, -39.6715
194, 19.500000000, 55.5531, -39.6474
195, 19.600000000, 55.5094, -39.6232
196, 19.700000000, 55.4657, -39.5989
197, 19.800000000, 55.4221, -39.5744
198, 19.900000000, 55.3785, -39.5499
199, 20.000000000, 55.335, -39.5252
200, 20.100000000, 55.2916, -39.5005
201, 20.200000000, 55.2482, -39.4757
202, 20.300000000, 55.2048, -39.4508
203, 20.400000000, 55.1614, -39.4259
204, 20.500000000, 55.1181, -39.4009
205, 20.600000000, 55.0748, -39.3759
206, 20.700000000, 55.0315, -39.3509
207, 20.800000000, 54.9883, -39.3258
208, 20.900000000, 54.945, -39.3007
209, 21.000000000, 54.9018, -39.2756
210, 21.100000000, 54.8585, -39.2505
211, 21.200000000, 54.8153, -39.2254
212, 21.300000000, 54.7721, -39.2002
213, 21.400000000, 54.7289, -39.175
214, 21.500000000, 54.6857, -39.1499
215, 21.600000000, 54.6425, -39.1247
216, 21.700000000, 54.5993, -39.0995
217, 21.800000000, 54.5562, -39.0743
218, 21.900000000, 54.513, -39.049
219, 22.000000000, 54.4698, -39.0238
220, 22.100000000, 54.4266, -38.9986
221, 22.200000000, 54.3835, -38.9734
222, 22.300000000, 54.3403, -38.9481
223, 22.400000000, 54.2971, -38.9229
224, 22.500000000, 54.254, -38.8977
225, 22.600000000, 54.2108, -38.8724
226, 22.700000000, 54.1676, -38.8472
227, 22.800000000, 54.1245, -38.822
228, 22.900000000, 54.0813, -38.7967
229, 23.000000000, 54.0382, -38.7715
230, 23.100000000, 53.995, -38.7462
231, 23.200000000, 53.9518, -38.721
232, 23.300000000, 53.9087, -38.6957
233, 23.400000000, 53.8655, -38.6705
234, 23.500000000, 53.8224, -38.6452
235, 23.600000000, 53.7792, -38.62
236, 23.700000000, 53.7361, -38.5947
237, 23.800000000, 53.6929, -38.5695
238, 23.900000000, 53.6498, -38.5442
239, 24.000000000, 53.6066, -38.519
240, 24.100000000, 53.5634, -38.4937
241, 24.200000000, 53.5203, -38.4685
242, 24.300000000, 53.4771, -38.4432
243, 24.400000000, 53.434, -38.418
244, 24.500000000, 53.3908, -38.3927
245, 24.600000000, 53.3477, -38.3675
246, 24.700000000, 53.3045, -38.3422
247, 24.800000000, 53.2614, -38.317
248, 24.900000000, 53.2182, -38.2917
249, 25.000000000, 53.1751, -38.2664
250, 25.100000000, 53.1319, -38.2412
251, 25.200000000, 53.0887, -38.2159
252, 25.300000000, 53.0456, -38.1907
253, 25.400000000, 53.0024, -38.1654
254, 25.500000000, 52.9593, -38.1402
255, 25.600000000, 52.9161, -38.1149
256, 25.700000000, 52.873, -38.0897
257, 25.800000000, 52.8298, -38.0644
258, 25.900000000, 52.7867, -38.0392
259, 26.000000000, 52.7435, -38.0139
260, 26.100000000, 52.7004, -37.9887
261, 26.200000000, 52.6572, -37.9634
262, 26.300000000, 52.6141, -37.9381
263, 26.400000000, 52.5709, -37.9129
264, 26.500000000, 52.5277, -37.8876
265, 26.600000000, 52.4846, -37.8624
266, 26.700000000, 52.4414, -37.8371
267, 26.800000000, 52.3983, -37.8119
268, 26.900000000, 52.3551, -37.7866
269, 27.000000000, 52.312, -37.7614
270, 27.100000000, 52.2688, -37.7361
271, 27.200000000, 52.2257, -37.7109
272, 27.300000000, 52.1825, -37.6856
273, 27.400000000, 52.1394, -37.6604
274, 27.500000000, 52.0962, -37.6351
275, 27.600000000, 52.0531, -37.6098
276, 27.700000000, 52.0099, -37.5846
277, 27.800000000, 51.9668, -37.5593
278, 27.900000000, 51.9236, -37.5341
279, 28.000000000, 51.8804, -37.5088
280, 28.100000000, 51.8373, -37.4836
281, 28.200000000, 51.7941, -37.4583
282, 28.300000000, 51.751, -37.4331
283, 28.400000000, 51.7078, -37.4078
284, 28.500000000, 51.6647, -37.3826
285, 28.600000000, 51.6215, -37.3573
286, 28.700000000, 51.5784, -37.3321
287, 28.800000000, 51.5352, -37.3068
288, 28.900000000, 51.4921, -37.2815
289, 29.000000000, 51.4489, -37.2563
290, 29.100000000, 51.4058, -37.231
291, 29.200000000, 51.3626, -37.2058
292, 29.300000000, 51.3194, -37.1805
293, 29.400000000, 51.2763, -37.1553
294, 29.500000000, 51.2331, -37.13
295, 29.600000000, 51.19, -37.1048
296, 29.700000000, 51.1468, -37.0795
297, 29.800000000, 51.1037, -37.0543
298, 29.900000000, 51.0605, -37.029
299, 30.000000000, 51.0174, -37.0038
300, 30.100000000, 50.9742, -36.9785
301, 30.200000000, 50.9311, -36.9532
302, 30.300000000, 50.8879, -36.928
303, 30.400000000, 50.8448, -36.9027
304, 30.500000000, 50.8016, -36.8775
305, 30.600000000, 50.7584, -36.8522
306, 30.700000000, 50.7153, -36.827
307, 30.800000000, 50.6721, -36.8017
308, 30.900000000, 50.629, -36.7765
309, 31.000000000, 50.5858, -36.7512
310, 31.100000000, 50.5427, -36.726
311, 31.200000000, 50.4995, -36.7007
312, 31.300000000, 50.4564, -36.6755
313, 31.400000000, 50.4132, -36.6502
314, 31.500000000, 50.3701, -36.6249
315, 31.600000000, 50.3269, -36.5997
316, 31.700000000, 50.2838, -36.5744
317, 31.800000000, 50.2406, -36.5492
318, 31.900000000, 50.1975, -36.5239
319, 32.000000000, 50.1543, -36.4987
320, 32.100000000, 50.1111, -36.4734
321, 32.200000000, 50.068, -36.4482
322, 32.300000000, 50.0248, -36.4229
323, 32.400000000, 49.9817, -36.3977
324, 32.500000000, 49.9385, -36.3724
325, 32.600000000, 49.8954, -36.3471
326, 32.700000000, 49.8522, -36.3219
327, 32.800000000, 49.8091, -36.2966
328, 32.900000000, 49.7659, -36.2714
329, 33.000000000, 49.7228, -36.2461
330, 33.100000000, 49.6796, -36.2209
331, 33.200000000, 49.6365, -36.1956
332, 33.300000000, 49.5933, -36.1704
333, 33.400000000, 49.5501, -36.1451
334, 33.500000000, 49.507, -36.1199
335, 33.600000000, 49.4638, -36.0946
336, 33.700000000, 49.4207, -36.0694
337, 33.800000000, 49.3775, -36.0441
338, 33.900000000, 49.3344, -36.0188
339, 34.000000000, 49.2912, -35.9936
340, 34.100000000, 49.2481, -35.9683
341, 34.200000000, 49.2049, -35.9431
342, 34.300000000, 49.1618, -35.9178
343, 34.400000000, 49.1186, -35.8926
344, 34.500000000, 49.0755, -35.8673
345, 34.600000000, 49.0323, -35.8421
346, 34.700000000, 48.9891, -35.8168
347, 34.800000000, 48.946, -35.7916
348, 34.900000000, 48.9028, -35.7663
349, 35.000000000, 48.8597, -35.7411
350, 35.100000000, 48.8165, -35.7158
351, 35.200000000, 48.7734, -35.6905
352, 35.300000000, 48.7302, -35.6653
353, 35.400000000, 48.6871, -35.64
354, 35.500000000, 48.644, -35.6147
355, 35.600000000, 48.6008, -35.5894
356, 35.700000000, 48.5577, -35.5642
357, 35.800000000, 48.5145, -35.5389
358, 35.900000000, 48.4714, -35.5136
359, 36.000000000, 48.4282, -35.4884
360, 36.100000000, 48.385, -35.4632
361, 36.200000000, 48.3418, -35.438
362, 36.300000000, 48.2986, -35.4129
363, 36.400000000, 48.2554, -35.3877
364, 36.500000000, 48.2122, -35.3626
365, 36.600000000, 48.1689, -35.3375
366, 36.700000000, 48.1257, -35.3124
367, 36.800000000, 48.0825, -35.2873
368, 36.900000000, 48.0392, -35.2622
369, 37.000000000, 47.996, -35.237
370, 37.100000000, 47.9528, -35.2119
371, 37.200000000, 47.9096, -35.1867
372, 37.300000000, 47.8664, -35.1616
373, 37.400000000, 47.8232, -35.1364
374, 37.500000000, 47.78, -35.1112
375, 37.600000000, 47.7368, -35.0859
376, 37.700000000, 47.6937, -35.0607
377, 37.800000000, 47.6505, -35.0354
378, 37.900000000, 47.6074, -35.0101
379, 38.000000000, 47.5643, -34.9848
380, 38.100000000, 47.5212, -34.9594
381, 38.200000000, 47.4781, -34.934
382, 38.300000000, 47.4351, -34.9086
383, 38.400000000, 47.3921, -34.8831
384, 38.500000000, 47.3491, -34.8576
385, 38.600000000, 47.3061, -34.8321
386, 38.700000000, 47.2631, -34.8065
387, 38.800000000, 47.2202, -34.7809
388, 38.900000000, 47.1772, -34.7552
389, 39.000000000, 47.1343, -34.7296
390, 39.100000000, 47.0914, -34.7039
391, 39.200000000, 47.0486, -34.6781
392, 39.300000000, 47.0057, -34.6524
393, 39.400000000, 46.9629, -34.6266
394, 39.500000000, 46.9201, -34.6008
395, 39.600000000, 46.8773, -34.5749
396, 39.700000000, 46.8345, -34.549
397, 39.800000000, 46.7917, -34.5231
398, 39.900000000, 46.749, -34.4972
399, 40.000000000, 46.7062, -34.4712
400, 40.100000000, 46.6635, -34.4452
401, 40.200000000, 46.6208, -34.4192
402, 40.300000000, 46.5781, -34.3932
403, 40.400000000, 46.5355, -34.3671
404, 40.500000000, 46.4928, -34.341
405, 40.600000000, 46.4502, -34.3149
406, 40.700000000, 46.4076, -34.2888
407, 40.800000000, 46.365, -34.2626
408, 40.900000000, 46.3224, -34.2364
409, 41.000000000, 46.28, -34.2098
410, 41.100000000, 46.2422, -34.1771
411, 41.200000000, 46.2101, -34.1388
412, 41.300000000, 46.1843, -34.096
413, 41.400000000, 46.1655, -34.0496
414, 41.500000000, 46.1542, -34.0009
415, 41.600000000, 46.1507, -33.951
416, 41.700000000, 46.155, -33.9012
417, 41.800000000, 46.1671, -33.8527
418, 41.900000000, 46.1865, -33.8067
419, 42.000000000, 46.213, -33.7642
420, 42.100000000, 46.2325, -33.7182
421, 42.200000000, 46.2446, -33.6697
422, 42.300000000, 46.2641, -33.6236
423, 42.400000000, 46.2761, -33.5751
424, 42.500000000, 46.2956, -33.5291
425, 42.600000000, 46.3077, -33.4805
426, 42.700000000, 46.3271, -33.4345
427, 42.800000000, 46.3392, -33.386
428, 42.900000000, 46.3587, -33.3399
429, 43.000000000, 46.3712, -33.2915
430, 43.100000000, 46.3761, -33.2417
431, 43.200000000, 46.3886, -33.1933
432, 43.300000000, 46.3934, -33.1436
433, 43.400000000, 46.406, -33.0952
434, 43.500000000, 46.4108, -33.0454
435, 43.600000000, 46.4233, -32.997
436, 43.700000000, 46.4297, -32.9474
437, 43.800000000, 46.4282, -32.8974
438, 43.900000000, 46.4345, -32.8478
439, 44.000000000, 46.433, -32.7979
440, 44.100000000, 46.4393, -32.7483
441, 44.200000000, 46.4403, -32.6983
442, 44.300000000, 46.4346, -32.6486
443, 44.400000000, 46.4308, -32.5987
444, 44.500000000, 46.4192, -32.5501
445, 44.600000000, 46.4124, -32.5006
446, 44.700000000, 46.3979, -32.4527
447, 44.800000000, 46.3877, -32.4038
448, 44.900000000, 46.3701, -32.357
449, 45.000000000, 46.3566, -32.3088
450, 45.100000000, 46.3357, -32.2634
451, 45.200000000, 46.3191, -32.2162
452, 45.300000000, 46.2989, -32.1705
453, 45.400000000, 46.2861, -32.1222
454, 45.500000000, 46.2711, -32.0745
455, 45.600000000, 46.2528, -32.028
456, 45.700000000, 46.2315, -31.9827
457, 45.800000000, 46.208, -31.9386
458, 45.900000000, 46.1828, -31.8954
459, 46.000000000, 46.1561, -31.8531
460, 46.100000000, 46.1285, -31.8114
461, 46.200000000, 46.1, -31.7703
462, 46.300000000, 46.071, -31.7296
463, 46.400000000, 46.0415, -31.6893
464, 46.500000000, 46.0116, -31.6491
465, 46.600000000, 45.9815, -31.6092
466, 46.700000000, 45.9511, -31.5695
467, 46.800000000, 45.9205, -31.53
468, 46.900000000, 45.8899, -31.4905
469, 47.000000000, 45.8593, -31.4509
470, 47.100000000, 45.829, -31.4112
471, 47.200000000, 45.7988, -31.3713
472, 47.300000000, 45.7689, -31.3312
473, 47.400000000, 45.7392, -31.291
474, 47.500000000, 45.7097, -31.2506
475, 47.600000000, 45.6804, -31.2101
476, 47.700000000, 45.6511, -31.1696
477, 47.800000000, 45.622, -31.129
478, 47.900000000, 45.5928, -31.0884
479, 48.000000000, 45.5635, -31.0478
480, 48.100000000, 45.5343, -31.0072
481, 48.200000000, 45.505, -30.9667
482, 48.300000000, 45.4756, -30.9263
483, 48.400000000, 45.4462, -30.8858
484, 48.500000000, 45.4167, -30.8454
485, 48.600000000, 45.3872, -30.8051
486, 48.700000000, 45.3576, -30.7648
487, 48.800000000, 45.3279, -30.7246
488, 48.900000000, 45.2982, -30.6844
489, 49.000000000, 45.2684, -30.6442
490, 49.100000000, 45.2386, -30.604
491, 49.200000000, 45.2088, -30.5639
492, 49.300000000, 45.1788, -30.5239
493, 49.400000000, 45.1488, -30.4839
494, 49.500000000, 45.1187, -30.444
495, 49.600000000, 45.0885, -30.4042
496, 49.700000000, 45.0582, -30.3644
497, 49.800000000, 45.0279, -30.3246
498, 49.900000000, 44.9976, -30.2848
499, 50.000000000, 44.9672, -30.2451
500, 50.100000000, 44.9368, -30.2054
501, 50.200000000, 44.9063, -30.1658
502, 50.300000000, 44.8758, -30.1262
503, 50.400000000, 44.8453, -30.0866
504, 50.500000000, 44.8149, -30.0468
505, 50.600000000, 44.7848, -30.0069
506, 50.700000000, 44.7549, -29.9668
507, 50.800000000, 44.7254, -29.9265
508, 50.900000000, 44.6961, -29.886
509, 51.000000000, 44.6672, -29.8452
510, 51.100000000, 44.6384, -29.8043
511, 51.200000000, 44.6098, -29.7633
512, 51.300000000, 44.5812, -29.7222
513, 51.400000000, 44.5527, -29.6812
514, 51.500000000, 44.5241, -29.6402
515, 51.600000000, 44.4955, -29.5992
516, 51.700000000, 44.4668, -29.5582
517, 51.800000000, 44.4381, -29.5173
518, 51.900000000, 44.4094, -29.4763
519, 52.000000000, 44.3807, -29.4354
520, 52.100000000, 44.3518, -29.3946
521, 52.200000000, 44.3228, -29.3538
522, 52.300000000, 44.2937, -29.3132
523, 52.400000000, 44.2644, -29.2727
524, 52.500000000, 44.2351, -29.2322
525, 52.600000000, 44.2057, -29.1917
526, 52.700000000, 44.1762, -29.1514
527, 52.800000000, 44.1466, -29.111
528, 52.900000000, 44.117, -29.0708
529, 53.000000000, 44.0872, -29.0306
530, 53.100000000, 44.0574, -28.9905
531, 53.200000000, 44.0274, -28.9505
532, 53.300000000, 43.9974, -28.9105
533, 53.400000000, 43.9673, -28.8706
534, 53.500000000, 43.937, -28.8307
535, 53.600000000, 43.9067, -28.791
536, 53.700000000, 43.8763, -28.7513
537, 53.800000000, 43.8458, -28.7117
538, 53.900000000, 43.8155, -28.6719
539, 54.000000000, 43.7855, -28.6319
540, 54.100000000, 43.7558, -28.5917
541, 54.200000000, 43.7264, -28.5512
542, 54.300000000, 43.6975, -28.5105
543, 54.400000000, 43.6689, -28.4694
544, 54.500000000, 43.6406, -28.4282
545, 54.600000000, 43.6125, -28.3869
546, 54.700000000, 43.5844, -28.3455
547, 54.800000000, 43.5564, -28.3041
548, 54.900000000, 43.5283, -28.2627
549, 55.000000000, 43.5001, -28.2214
550, 55.100000000, 43.4719, -28.1802
551, 55.200000000, 43.4436, -28.1389
552, 55.300000000, 43.4153, -28.0977
553, 55.400000000, 43.3869, -28.0566
554, 55.500000000, 43.3584, -28.0155
555, 55.600000000, 43.3298, -27.9744
556, 55.700000000, 43.3012, -27.9335
557, 55.800000000, 43.2725, -27.8925
558, 55.900000000, 43.2437, -27.8516
559, 56.000000000, 43.2148, -27.8108
560, 56.100000000, 43.1858, -27.7701
561, 56.200000000, 43.1567, -27.7294
562, 56.300000000, 43.1275, -27.6889
563, 56.400000000, 43.0981, -27.6484
564, 56.500000000, 43.0687, -27.6079
565, 56.600000000, 43.0391, -27.5676
566, 56.700000000, 43.0095, -27.5274
567, 56.800000000, 42.9798, -27.4872
568, 56.900000000, 42.9499, -27.4471
569, 57.000000000, 42.9199, -27.4071
570, 57.100000000, 42.8898, -27.3671
571, 57.200000000, 42.8599, -27.327
572, 57.300000000, 42.8304, -27.2867
573, 57.400000000, 42.8013, -27.2461
574, 57.500000000, 42.7727, -27.205
575, 57.600000000, 42.7446, -27.1637
576, 57.700000000, 42.717, -27.122
577, 57.800000000, 42.6896, -27.0802
578, 57.900000000, 42.6623, -27.0382
579, 58.000000000, 42.6351, -26.9963
580, 58.100000000, 42.6079, -26.9544
581, 58.200000000, 42.5806, -26.9125
582, 58.300000000, 42.5533, -26.8706
583, 58.400000000, 42.5259, -26.8288
584, 58.500000000, 42.4984, -26.787
585, 58.600000000, 42.4708, -26.7453
586, 58.700000000, 42.4431, -26.7037
587, 58.800000000, 42.4152, -26.6622
588, 58.900000000, 42.3872, -26.6207
589, 59.000000000, 42.3592, -26.5793
590, 59.100000000, 42.3311, -26.538
591, 59.200000000, 42.3029, -26.4967
592, 59.300000000, 42.2745, -26.4555
593, 59.400000000, 42.2459, -26.4145
594, 59.500000000, 42.2172, -26.3736
595, 59.600000000, 42.1883, -26.3328
596, 59.700000000, 42.1592, -26.2921
597, 59.800000000, 42.1298, -26.2517
598, 59.900000000, 42.1002, -26.2113
599, 60.000000000, 42.0705, -26.1712
600, 60.100000000, 42.0404, -26.1312
601, 60.200000000, 42.0102, -26.0914
602, 60.300000000, 41.9796, -26.0518
603, 60.400000000, 41.9489, -26.0124
604, 60.500000000, 41.9179, -25.9731
605, 60.600000000, 41.8868, -25.934
606, 60.700000000, 41.8553, -25.8951
607, 60.800000000, 41.8237, -25.8564
608, 60.900000000, 41.7919, -25.8179
609, 61.000000000, 41.7598, -25.7795
610, 61.100000000, 41.7276, -25.7412
611, 61.200000000, 41.6952, -25.7032
612, 61.300000000, 41.6626, -25.6652
613, 61.400000000, 41.6299, -25.6274
614, 61.500000000, 41.5971, -25.5897
615, 61.600000000, 41.5641, -25.5521
616, 61.700000000, 41.5309, -25.5147
617, 61.800000000, 41.4977, -25.4773
618, 61.900000000, 41.4643, -25.4401
619, 62.000000000, 41.4308, -25.403
620, 62.100000000, 41.3972, -25.366
621, 62.200000000, 41.3634, -25.3292
622, 62.300000000, 41.3294, -25.2924
623, 62.400000000, 41.2954, -25.2558
624, 62.500000000, 41.2613, -25.2192
625, 62.600000000, 41.2271, -25.1828
626, 62.700000000, 41.1928, -25.1464
627, 62.800000000, 41.1584, -25.1102
628, 62.900000000, 41.1238, -25.074
629, 63.000000000, 41.0891, -25.038
630, 63.100000000, 41.0544, -25.002
631, 63.200000000, 41.0195, -24.9662
632, 63.300000000, 40.9845, -24.9306
633, 63.400000000, 40.9493, -24.895
634, 63.500000000, 40.9141, -24.8595
635, 63.600000000, 40.8787, -24.8242
636, 63.700000000, 40.8432, -24.789
637, 63.800000000, 40.8075, -24.7539
638, 63.900000000, 40.7718, -24.719
639, 64.000000000, 40.7359, -24.6842
640, 64.100000000, 40.6998, -24.6495
641, 64.200000000, 40.6636, -24.6151
642, 64.300000000, 40.6272, -24.5808
643, 64.400000000, 40.5907, -24.5466
644, 64.500000000, 40.554, -24.5126
645, 64.600000000, 40.5172, -24.4788
646, 64.700000000, 40.4801, -24.4452
647, 64.800000000, 40.443, -24.4118
648, 64.900000000, 40.4056, -24.3785
649, 65.000000000, 40.3682, -24.3454
650, 65.100000000, 40.3306, -24.3125
651, 65.200000000, 40.2928, -24.2797
652, 65.300000000, 40.2549, -24.2471
653, 65.400000000, 40.2168, -24.2147
654, 65.500000000, 40.1786, -24.1825
655, 65.600000000, 40.1402, -24.1504
656, 65.700000000, 40.1017, -24.1185
657, 65.800000000, 40.0631, -24.0868
658, 65.900000000, 40.0243, -24.0552
659, 66.000000000, 39.9854, -24.0238
660, 66.100000000, 39.9464, -23.9925
661, 66.200000000, 39.9073, -23.9613
662, 66.300000000, 39.8681, -23.9304
663, 66.400000000, 39.8287, -23.8995
664, 66.500000000, 39.7892, -23.8689
665, 66.600000000, 39.7496, -23.8384
666, 66.700000000, 39.7098, -23.8081
667, 66.800000000, 39.6699, -23.778
668, 66.900000000, 39.6298, -23.7481
669, 67.000000000, 39.5896, -23.7183
670, 67.100000000, 39.5493, -23.6888
671, 67.200000000, 39.5088, -23.6594
672, 67.300000000, 39.4682, -23.6303
673, 67.400000000, 39.4274, -23.6013
674, 67.500000000, 39.3865, -23.5725
675, 67.600000000, 39.3455, -23.544
676, 67.700000000, 39.3043, -23.5157
677, 67.800000000, 39.2629, -23.4875
678, 67.900000000, 39.2214, -23.4597
679, 68.000000000, 39.1798, -23.432
680, 68.100000000, 39.138, -23.4046
681, 68.200000000, 39.096, -23.3774
682, 68.300000000, 39.0539, -23.3504
683, 68.400000000, 39.0116, -23.3237
684, 68.500000000, 38.9692, -23.2973
685, 68.600000000, 38.9266, -23.2711
686, 68.700000000, 38.8839, -23.2451
687, 68.800000000, 38.841, -23.2194
688, 68.900000000, 38.7979, -23.194
689, 69.000000000, 38.7547, -23.1688
690, 69.100000000, 38.7114, -23.1439
691, 69.200000000, 38.6679, -23.1193
692, 69.300000000, 38.6242, -23.0949
693, 69.400000000, 38.5804, -23.0708
694, 69.500000000, 38.5364, -23.047
695, 69.600000000, 38.4923, -23.0235
696, 69.700000000, 38.448, -23.0003
697, 69.800000000, 38.4036, -22.9773
698, 69.900000000, 38.359, -22.9547
699, 70.000000000, 38.3143, -22.9324
700, 70.100000000, 38.2694, -22.9103
701, 70.200000000, 38.2244, -22.8886
702, 70.300000000, 38.1792, -22.8672
703, 70.400000000, 38.1339, -22.8461
704, 70.500000000, 38.0884, -22.8252
705, 70.600000000, 38.0428, -22.8047
706, 70.700000000, 37.9971, -22.7845
