Sequence, time(s), pose_x(m), pose_y(m)
160, 16.100000000, 57.085, -49.84
168, 16.900000000, 57.0662, -49.8863
169, 17.000000000, 57.0404, -49.9291
170, 17.100000000, 57.0082, -49.9674
171, 17.200000000, 56.9704, -50.0001
172, 17.300000000, 56.9279, -50.0266
173, 17.400000000, 56.8819, -50.046
174, 17.500000000, 56.8334, -50.058
175, 17.600000000, 56.7835, -50.0623
176, 17.700000000, 56.7337, -50.0588
177, 17.800000000, 56.685, -50.0474
178, 17.900000000, 56.6372, -50.0328
179, 18.000000000, 56.5901, -50.0158
180, 18.100000000, 56.5439, -49.9967
181, 18.200000000, 56.4984, -49.976
182, 18.300000000, 56.4536, -49.9538
183, 18.400000000, 56.4094, -49.9304
184, 18.500000000, 56.3658, -49.9059
185, 18.600000000, 56.3228, -49.8805
186, 18.700000000, 56.2802, -49.8543
187, 18.800000000, 56.238, -49.8274
188, 18.900000000, 56.1962, -49.7999
189, 19.000000000, 56.1548, -49.772
190, 19.100000000, 56.1136, -49.7436
191, 19.200000000, 56.0727, -49.7148
192, 19.300000000, 56.0321, -49.6857
193, 19.400000000, 55.9916, -49.6564
194, 19.500000000, 55.9513, -49.6268
195, 19.600000000, 55.9112, -49.597
196, 19.700000000, 55.8712, -49.567
197, 19.800000000, 55.8313, -49.5368
198, 19.900000000, 55.7915, -49.5065
199, 20.000000000, 55.7518, -49.4761
200, 20.100000000, 55.7122, -49.4456
201, 20.200000000, 55.6726, -49.415
202, 20.300000000, 55.6331, -49.3844
203, 20.400000000, 55.5937, -49.3536
204, 20.500000000, 55.5543, -49.3228
205, 20.600000000, 55.5149, -49.292
206, 20.700000000, 55.4756, -49.2611
207, 20.800000000, 55.4363, -49.2302
208, 20.900000000, 55.3971, -49.1992
209, 21.000000000, 55.3578, -49.1682
210, 21.100000000, 55.3186, -49.1372
211, 21.200000000, 55.2794, -49.1062
212, 21.300000000, 55.2402, -49.0752
213, 21.400000000, 55.201, -49.0441
214, 21.500000000, 55.1619, -49.013
215, 21.600000000, 55.1227, -48.9819
216, 21.700000000, 55.0836, -48.9508
217, 21.800000000, 55.0444, -48.9197
218, 21.900000000, 55.0053, -48.8886
219, 22.000000000, 54.9662, -48.8575
220, 22.100000000, 54.927, -48.8263
221, 22.200000000, 54.8879, -48.7952
222, 22.300000000, 54.8488, -48.764
223, 22.400000000, 54.8097, -48.7329
224, 22.500000000, 54.7706, -48.7017
225, 22.600000000, 54.7315, -48.6706
226, 22.700000000, 54.6924, -48.6394
227, 22.800000000, 54.6533, -48.6083
228, 22.900000000, 54.6141, -48.5771
229, 23.000000000, 54.575, -48.5459
230, 23.100000000, 54.5359, -48.5148
231, 23.200000000, 54.4968, -48.4836
232, 23.300000000, 54.4578, -48.4525
233, 23.400000000, 54.4187, -48.4213
234, 23.500000000, 54.3796, -48.3901
235, 23.600000000, 54.3405, -48.3589
236, 23.700000000, 54.3014, -48.3278
237, 23.800000000, 54.2623, -48.2966
238, 23.900000000, 54.2232, -48.2654
239, 24.000000000, 54.1841, -48.2343
240, 24.100000000, 54.145, -48.2031
241, 24.200000000, 54.1059, -48.1719
242, 24.300000000, 54.0668, -48.1408
243, 24.400000000, 54.0277, -48.1096
244, 24.500000000, 53.9886, -48.0784
245, 24.600000000, 53.9495, -48.0472
246, 24.700000000, 53.9104, -48.0161
247, 24.800000000, 53.8713, -47.9849
248, 24.900000000, 53.8322, -47.9537
249, 25.000000000, 53.7931, -47.9225
250, 25.100000000, 53.7541, -47.8914
251, 25.200000000, 53.715, -47.8602
252, 25.300000000, 53.6759, -47.829
253, 25.400000000, 53.6368, -47.7978
254, 25.500000000, 53.5977, -47.7667
255, 25.600000000, 53.5586, -47.7355
256, 25.700000000, 53.5195, -47.7043
257, 25.800000000, 53.4804, -47.6732
258, 25.900000000, 53.4413, -47.642
259, 26.000000000, 53.4022, -47.6108
260, 26.100000000, 53.3631, -47.5796
261, 26.200000000, 53.324, -47.5485
262, 26.300000000, 53.2849, -47.5173
263, 26.400000000, 53.2459, -47.4861
264, 26.500000000, 53.2068, -47.4549
265, 26.600000000, 53.1677, -47.4238
266, 26.700000000, 53.1286, -47.3926
267, 26.800000000, 53.0895, -47.3614
268, 26.900000000, 53.0504, -47.3302
269, 27.000000000, 53.0113, -47.2991
270, 27.100000000, 52.9722, -47.2679
271, 27.200000000, 52.9331, -47.2367
272, 27.300000000, 52.894, -47.2056
273, 27.400000000, 52.8549, -47.1744
274, 27.500000000, 52.8158, -47.1432
275, 27.600000000, 52.7767, -47.112
276, 27.700000000, 52.7377, -47.0809
277, 27.800000000, 52.6986, -47.0497
278, 27.900000000, 52.6595, -47.0185
279, 28.000000000, 52.6204, -46.9873
280, 28.100000000, 52.5813, -46.9562
281, 28.200000000, 52.5422, -46.925
282, 28.300000000, 52.5031, -46.8938
283, 28.400000000, 52.464, -46.8626
284, 28.500000000, 52.4249, -46.8315
285, 28.600000000, 52.3858, -46.8003
286, 28.700000000, 52.3467, -46.7691
287, 28.800000000, 52.3076, -46.7379
288, 28.900000000, 52.2686, -46.7068
289, 29.000000000, 52.2295, -46.6756
290, 29.100000000, 52.1904, -46.6444
291, 29.200000000, 52.1513, -46.6132
292, 29.300000000, 52.1122, -46.5821
293, 29.400000000, 52.0731, -46.5509
294, 29.500000000, 52.034, -46.5197
295, 29.600000000, 51.9949, -46.4886
296, 29.700000000, 51.9558, -46.4574
297, 29.800000000, 51.9167, -46.4262
298, 29.900000000, 51.8776, -46.395
299, 30.000000000, 51.8385, -46.3639
300, 30.100000000, 51.7994, -46.3327
301, 30.200000000, 51.7604, -46.3015
302, 30.300000000, 51.7213, -46.2703
303, 30.400000000, 51.6822, -46.2392
304, 30.500000000, 51.6431, -46.208
305, 30.600000000, 51.604, -46.1768
306, 30.700000000, 51.5649, -46.1456
307, 30.800000000, 51.5258, -46.1145
308, 30.900000000, 51.4867, -46.0833
309, 31.000000000, 51.4476, -46.0521
310, 31.100000000, 51.4085, -46.0209
311, 31.200000000, 51.3694, -45.9898
312, 31.300000000, 51.3303, -45.9586
313, 31.400000000, 51.2912, -45.9274
314, 31.500000000, 51.2522, -45.8963
315, 31.600000000, 51.2131, -45.8651
316, 31.700000000, 51.174, -45.8339
317, 31.800000000, 51.1349, -45.8027
318, 31.900000000, 51.0958, -45.7716
319, 32.000000000, 51.0567, -45.7404
320, 32.100000000, 51.0176, -45.7092
321, 32.200000000, 50.9785, -45.678
322, 32.300000000, 50.9394, -45.6469
323, 32.400000000, 50.9003, -45.6157
324, 32.500000000, 50.8612, -45.5845
325, 32.600000000, 50.8221, -45.5533
326, 32.700000000, 50.7831, -45.5222
327, 32.800000000, 50.744, -45.491
328, 32.900000000, 50.7049, -45.4598
329, 33.000000000, 50.6658, -45.4286
330, 33.100000000, 50.6267, -45.3975
331, 33.200000000, 50.5876, -45.3663
332, 33.300000000, 50.5485, -45.3351
333, 33.400000000, 50.5094, -45.304
334, 33.500000000, 50.4703, -45.2728
335, 33.600000000, 50.4312, -45.2416
336, 33.700000000, 50.3921, -45.2104
337, 33.800000000, 50.353, -45.1793
338, 33.900000000, 50.3139, -45.1481
339, 34.000000000, 50.2749, -45.1169
340, 34.100000000, 50.2358, -45.0857
341, 34.200000000, 50.1967, -45.0546
342, 34.300000000, 50.1576, -45.0234
343, 34.400000000, 50.1185, -44.9922
344, 34.500000000, 50.0794, -44.961
345, 34.600000000, 50.0403, -44.9299
346, 34.700000000, 50.0012, -44.8987
347, 34.800000000, 49.9621, -44.8675
348, 34.900000000, 49.923, -44.8363
349, 35.000000000, 49.8839, -44.8052
350, 35.100000000, 49.8448, -44.774
351, 35.200000000, 49.8057, -44.7428
352, 35.300000000, 49.7667, -44.7116
353, 35.400000000, 49.7276, -44.6805
354, 35.500000000, 49.6885, -44.6493
355, 35.600000000, 49.6494, -44.6181
356, 35.700000000, 49.6103, -44.587
357, 35.800000000, 49.5712, -44.5558
358, 35.900000000, 49.5321, -44.5246
359, 36.000000000, 49.493, -44.4934
360, 36.100000000, 49.4539, -44.4623
361, 36.200000000, 49.4148, -44.4311
362, 36.300000000, 49.3757, -44.3999
363, 36.400000000, 49.3366, -44.3687
364, 36.500000000, 49.2975, -44.3376
365, 36.600000000, 49.2585, -44.3064
366, 36.700000000, 49.2194, -44.2752
367, 36.800000000, 49.1803, -44.244
368, 36.900000000, 49.1412, -44.2129
369, 37.000000000, 49.1021, -44.1817
370, 37.100000000, 49.063, -44.1505
371, 37.200000000, 49.0239, -44.1193
372, 37.300000000, 48.9848, -44.0882
373, 37.400000000, 48.9457, -44.057
374, 37.500000000, 48.9066, -44.0258
375, 37.600000000, 48.8675, -43.9947
376, 37.700000000, 48.8284, -43.9635
377, 37.800000000, 48.7894, -43.9323
378, 37.900000000, 48.7503, -43.9011
379, 38.000000000, 48.7112, -43.87
380, 38.100000000, 48.6721, -43.8388
381, 38.200000000, 48.633, -43.8076
382, 38.300000000, 48.5939, -43.7764
383, 38.400000000, 48.5548, -43.7453
384, 38.500000000, 48.5157, -43.7141
385, 38.600000000, 48.4766, -43.6829
386, 38.700000000, 48.4375, -43.6517
387, 38.800000000, 48.3984, -43.6206
388, 38.900000000, 48.3593, -43.5894
389, 39.000000000, 48.3202, -43.5582
390, 39.100000000, 48.2812, -43.527
391, 39.200000000, 48.2421, -43.4959
392, 39.300000000, 48.203, -43.4647
393, 39.400000000, 48.1639, -43.4335
394, 39.500000000, 48.1248, -43.4024
395, 39.600000000, 48.0857, -43.3712
396, 39.700000000, 48.0466, -43.34
397, 39.800000000, 48.0075, -43.3088
398, 39.900000000, 47.9684, -43.2777
399, 40.000000000, 47.9293, -43.2465
400, 40.100000000, 47.8902, -43.2153
401, 40.200000000, 47.8511, -43.1841
402, 40.300000000, 47.812, -43.153
403, 40.400000000, 47.773, -43.1218
404, 40.500000000, 47.7339, -43.0906
405, 40.600000000, 47.6948, -43.0594
406, 40.700000000, 47.6557, -43.0283
407, 40.800000000, 47.6166, -42.9971
408, 40.900000000, 47.5775, -42.9659
409, 41.000000000, 47.5384, -42.9347
410, 41.100000000, 47.4993, -42.9036
411, 41.200000000, 47.4602, -42.8724
412, 41.300000000, 47.4211, -42.8412
413, 41.400000000, 47.382, -42.81
414, 41.500000000, 47.3429, -42.7789
415, 41.600000000, 47.3038, -42.7477
416, 41.700000000, 47.2648, -42.7165
417, 41.800000000, 47.2257, -42.6854
418, 41.900000000, 47.1866, -42.6542
419, 42.000000000, 47.1475, -42.623
420, 42.100000000, 47.1084, -42.5918
421, 42.200000000, 47.0693, -42.5607
422, 42.300000000, 47.0302, -42.5295
423, 42.400000000, 46.9911, -42.4983
424, 42.500000000, 46.952, -42.4671
425, 42.600000000, 46.9129, -42.436
426, 42.700000000, 46.8738, -42.4048
427, 42.800000000, 46.8347, -42.3736
428, 42.900000000, 46.7957, -42.3424
429, 43.000000000, 46.7566, -42.3113
430, 43.100000000, 46.7175, -42.2801
431, 43.200000000, 46.6784, -42.2489
432, 43.300000000, 46.6393, -42.2177
433, 43.400000000, 46.6002, -42.1866
434, 43.500000000, 46.5611, -42.1554
435, 43.600000000, 46.5221, -42.1241
436, 43.700000000, 46.4831, -42.0928
437, 43.800000000, 46.4441, -42.0615
438, 43.900000000, 46.4052, -42.0301
439, 44.000000000, 46.3663, -41.9986
440, 44.100000000, 46.3275, -41.9672
441, 44.200000000, 46.2887, -41.9356
442, 44.300000000, 46.2499, -41.9041
443, 44.400000000, 46.2112, -41.8724
444, 44.500000000, 46.1725, -41.8408
445, 44.600000000, 46.1338, -41.8091
446, 44.700000000, 46.0952, -41.7774
447, 44.800000000, 46.0566, -41.7456
448, 44.900000000, 46.018, -41.7138
449, 45.000000000, 45.9794, -41.682
450, 45.100000000, 45.9408, -41.6502
451, 45.200000000, 45.9023, -41.6183
452, 45.300000000, 45.8637, -41.5865
453, 45.400000000, 45.8252, -41.5546
454, 45.500000000, 45.7867, -41.5227
455, 45.600000000, 45.7482, -41.4908
456, 45.700000000, 45.7097, -41.4589
457, 45.800000000, 45.6713, -41.4269
458, 45.900000000, 45.6328, -41.395
459, 46.000000000, 45.5944, -41.363
460, 46.100000000, 45.5559, -41.331
461, 46.200000000, 45.5175, -41.299
462, 46.300000000, 45.4791, -41.267
463, 46.400000000, 45.4407, -41.235
464, 46.500000000, 45.4023, -41.203
465, 46.600000000, 45.3639, -41.171
466, 46.700000000, 45.3255, -41.1389
467, 46.800000000, 45.2872, -41.1068
468, 46.900000000, 45.2488, -41.0748
469, 47.000000000, 45.2105, -41.0427
470, 47.100000000, 45.1721, -41.0106
471, 47.200000000, 45.1338, -40.9785
472, 47.300000000, 45.0955, -40.9463
473, 47.400000000, 45.0572, -40.9142
474, 47.500000000, 45.0189, -40.882
475, 47.600000000, 44.9806, -40.8499
476, 47.700000000, 44.9424, -40.8177
477, 47.800000000, 44.9041, -40.7855
478, 47.900000000, 44.8659, -40.7533
479, 48.000000000, 44.8276, -40.721
480, 48.100000000, 44.7894, -40.6888
481, 48.200000000, 44.7512, -40.6566
482, 48.300000000, 44.713, -40.6243
483, 48.400000000, 44.6748, -40.592
484, 48.500000000, 44.6367, -40.5597
485, 48.600000000, 44.5985, -40.5274
486, 48.700000000, 44.5604, -40.4951
487, 48.800000000, 44.5223, -40.4627
488, 48.900000000, 44.4842, -40.4303
489, 49.000000000, 44.4461, -40.3979
490, 49.100000000, 44.408, -40.3655
491, 49.200000000, 44.37, -40.333
492, 49.300000000, 44.332, -40.3005
493, 49.400000000, 44.294, -40.2681
494, 49.500000000, 44.2561, -40.2355
495, 49.600000000, 44.2237, -40.1973
496, 49.700000000, 44.1977, -40.1546
497, 49.800000000, 44.1788, -40.1083
498, 49.900000000, 44.1673, -40.0597
499, 50.000000000, 44.1635, -40.0098
500, 50.100000000, 44.1676, -39.96
501, 50.200000000, 44.1794, -39.9114
502, 50.300000000, 44.1835, -39.8616
503, 50.400000000, 44.1798, -39.8117
504, 50.500000000, 44.1839, -39.7619
505, 50.600000000, 44.1801, -39.712
506, 50.700000000, 44.1842, -39.6622
507, 50.800000000, 44.1804, -39.6123
508, 50.900000000, 44.1689, -39.5637
509, 51.000000000, 44.1652, -39.5138
510, 51.100000000, 44.1537, -39.4652
511, 51.200000000, 44.1499, -39.4153
512, 51.300000000, 44.1423, -39.3659
513, 51.400000000, 44.1271, -39.3183
514, 51.500000000, 44.1194, -39.2689
515, 51.600000000, 44.1083, -39.2201
516, 51.700000000, 44.0897, -39.1737
517, 51.800000000, 44.0757, -39.1257
518, 51.900000000, 44.0589, -39.0786
519, 52.000000000, 44.0349, -39.0347
520, 52.100000000, 44.0181, -38.9876
521, 52.200000000, 43.9991, -38.9414
522, 52.300000000, 43.9771, -38.8965
523, 52.400000000, 43.9485, -38.8555
524, 52.500000000, 43.9265, -38.8106
525, 52.600000000, 43.9031, -38.7664
526, 52.700000000, 43.8774, -38.7235
527, 52.800000000, 43.8496, -38.6819
528, 52.900000000, 43.8202, -38.6415
529, 53.000000000, 43.7895, -38.6021
530, 53.100000000, 43.7575, -38.5636
531, 53.200000000, 43.7245, -38.526
532, 53.300000000, 43.6907, -38.4892
533, 53.400000000, 43.6562, -38.4531
534, 53.500000000, 43.621, -38.4176
535, 53.600000000, 43.5852, -38.3826
536, 53.700000000, 43.5489, -38.3482
537, 53.800000000, 43.5122, -38.3142
538, 53.900000000, 43.4751, -38.2807
539, 54.000000000, 43.4376, -38.2476
540, 54.100000000, 43.3998, -38.2149
541, 54.200000000, 43.3617, -38.1825
542, 54.300000000, 43.3234, -38.1505
543, 54.400000000, 43.2848, -38.1186
544, 54.500000000, 43.2461, -38.087
545, 54.600000000, 43.2072, -38.0556
546, 54.700000000, 43.1678, -38.0248
547, 54.800000000, 43.1276, -37.9951
548, 54.900000000, 43.0863, -37.9669
549, 55.000000000, 43.0439, -37.9404
550, 55.100000000, 43.0005, -37.9156
551, 55.200000000, 42.9561, -37.8926
552, 55.300000000, 42.9108, -37.8714
553, 55.400000000, 42.8647, -37.852
554, 55.500000000, 42.8179, -37.8344
555, 55.600000000, 42.7705, -37.8185
556, 55.700000000, 42.7226, -37.8041
557, 55.800000000, 42.6744, -37.7908
558, 55.900000000, 42.626, -37.7785
559, 56.000000000, 42.5773, -37.7669
560, 56.100000000, 42.5286, -37.7558
561, 56.200000000, 42.4797, -37.7451
562, 56.300000000, 42.4308, -37.7347
563, 56.400000000, 42.3819, -37.7245
564, 56.500000000, 42.3329, -37.7144
565, 56.600000000, 42.2839, -37.7045
566, 56.700000000, 42.2349, -37.6947
567, 56.800000000, 42.1858, -37.685
568, 56.900000000, 42.1367, -37.6755
569, 57.000000000, 42.0876, -37.6661
570, 57.100000000, 42.0385, -37.657
571, 57.200000000, 41.9893, -37.648
572, 57.300000000, 41.94, -37.6393
573, 57.400000000, 41.8908, -37.6306
574, 57.500000000, 41.8415, -37.622
575, 57.600000000, 41.7923, -37.6136
576, 57.700000000, 41.743, -37.6051
577, 57.800000000, 41.6937, -37.5968
578, 57.900000000, 41.6444, -37.5886
579, 58.000000000, 41.595, -37.5805
580, 58.100000000, 41.5457, -37.5724
581, 58.200000000, 41.4963, -37.5645
582, 58.300000000, 41.4469, -37.5566
583, 58.400000000, 41.3976, -37.5487
584, 58.500000000, 41.3482, -37.5409
585, 58.600000000, 41.2988, -37.5332
586, 58.700000000, 41.2494, -37.5255
587, 58.800000000, 41.1999, -37.5179
588, 58.900000000, 41.1505, -37.5103
589, 59.000000000, 41.1011, -37.5028
590, 59.100000000, 41.0516, -37.4954
591, 59.200000000, 41.0022, -37.4879
592, 59.300000000, 40.9528, -37.4805
593, 59.400000000, 40.9033, -37.4731
594, 59.500000000, 40.8539, -37.4657
595, 59.600000000, 40.8044, -37.4584
596, 59.700000000, 40.7549, -37.4511
597, 59.800000000, 40.7055, -37.4439
598, 59.900000000, 40.656, -37.4368
599, 60.000000000, 40.6065, -37.4297
600, 60.100000000, 40.557, -37.4227
601, 60.200000000, 40.5074, -37.4159
602, 60.300000000, 40.4579, -37.4092
603, 60.400000000, 40.4083, -37.4026
604, 60.500000000, 40.3587, -37.3961
605, 60.600000000, 40.3091, -37.3897
606, 60.700000000, 40.2595, -37.3834
607, 60.800000000, 40.2099, -37.3772
608, 60.900000000, 40.1603, -37.371
609, 61.000000000, 40.1107, -37.365
610, 61.100000000, 40.061, -37.3589
611, 61.200000000, 40.0114, -37.3529
612, 61.300000000, 39.9618, -37.3469
613, 61.400000000, 39.9121, -37.3409
614, 61.500000000, 39.8625, -37.335
615, 61.600000000, 39.8128, -37.329
616, 61.700000000, 39.7632, -37.3231
617, 61.800000000, 39.7135, -37.3173
618, 61.900000000, 39.6639, -37.3115
619, 62.000000000, 39.6142, -37.3057
620, 62.100000000, 39.5645, -37.3
621, 62.200000000, 39.5149, -37.2942
622, 62.300000000, 39.4652, -37.2885
623, 62.400000000, 39.4155, -37.2828
624, 62.500000000, 39.3658, -37.2771
625, 62.600000000, 39.3162, -37.2715
626, 62.700000000, 39.2665, -37.2658
627, 62.800000000, 39.2168, -37.2602
628, 62.900000000, 39.1671, -37.2546
629, 63.000000000, 39.1174, -37.249
630, 63.100000000, 39.0678, -37.2433
631, 63.200000000, 39.0181, -37.2376
632, 63.300000000, 38.9684, -37.2318
633, 63.400000000, 38.9188, -37.2259
634, 63.500000000, 38.8691, -37.2201
635, 63.600000000, 38.8194, -37.2143
636, 63.700000000, 38.7698, -37.2084
637, 63.800000000, 38.7202, -37.2024
638, 63.900000000, 38.6705, -37.1964
639, 64.000000000, 38.6209, -37.1903
640, 64.100000000, 38.5713, -37.1843
641, 64.200000000, 38.5216, -37.1783
642, 64.300000000, 38.472, -37.1723
643, 64.400000000, 38.4223, -37.1664
644, 64.500000000, 38.3727, -37.1606
645, 64.600000000, 38.323, -37.1549
646, 64.700000000, 38.2733, -37.1493
647, 64.800000000, 38.2236, -37.1439
648, 64.900000000, 38.1739, -37.1385
649, 65.000000000, 38.1242, -37.133
650, 65.100000000, 38.0745, -37.1277
651, 65.200000000, 38.0248, -37.1223
652, 65.300000000, 37.975, -37.117
653, 65.400000000, 37.9253, -37.1118
654, 65.500000000, 37.8756, -37.1065
655, 65.600000000, 37.8259, -37.1013
656, 65.700000000, 37.7761, -37.0961
657, 65.800000000, 37.7264, -37.0909
658, 65.900000000, 37.6767, -37.0857
659, 66.000000000, 37.6269, -37.0806
660, 66.100000000, 37.5772, -37.0755
661, 66.200000000, 37.5275, -37.0704
662, 66.300000000, 37.4777, -37.0654
663, 66.400000000, 37.428, -37.0603
664, 66.500000000, 37.3782, -37.0552
665, 66.600000000, 37.3285, -37.0502
666, 66.700000000, 37.2787, -37.0451
667, 66.800000000, 37.229, -37.0401
668, 66.900000000, 37.1793, -37.0351
669, 67.000000000, 37.1295, -37.0301
670, 67.100000000, 37.0797, -37.0253
671, 67.200000000, 37.0299, -37.0207
672, 67.300000000, 36.9801, -37.0162
673, 67.400000000, 36.9303, -37.0119
674, 67.500000000, 36.8805, -37.0076
675, 67.600000000, 36.8307, -37.0032
676, 67.700000000, 36.7809, -36.9989
677, 67.800000000, 36.7311, -36.9947
678, 67.900000000, 36.6813, -36.9905
679, 68.000000000, 36.6314, -36.9863
680, 68.100000000, 36.5816, -36.9821
681, 68.200000000, 36.5318, -36.9778
682, 68.300000000, 36.482, -36.9736
683, 68.400000000, 36.4321, -36.9695
684, 68.500000000, 36.3823, -36.9655
685, 68.600000000, 36.3325, -36.9616
686, 68.700000000, 36.2826, -36.9576
687, 68.800000000, 36.2328, -36.9536
688, 68.900000000, 36.1829, -36.9495
689, 69.000000000, 36.1331, -36.9454
690, 69.100000000, 36.0833, -36.9413
691, 69.200000000, 36.0334, -36.9371
692, 69.300000000, 35.9836, -36.933
693, 69.400000000, 35.9338, -36.9289
694, 69.500000000, 35.884, -36.9247
695, 69.600000000, 35.8341, -36.9205
696, 69.700000000, 35.7843, -36.9164
697, 69.800000000, 35.7345, -36.9123
698, 69.900000000, 35.6847, -36.9081
699, 70.000000000, 35.6348, -36.904
700, 70.100000000, 35.585, -36.8998
701, 70.200000000, 35.5352, -36.8957
702, 70.300000000, 35.4853, -36.8915
703, 70.400000000, 35.4355, -36.8874
704, 70.500000000, 35.3857, -36.8832
705, 70.600000000, 35.3359, -36.8789
706, 70.700000000, 35.2861, -36.8745
707, 70.800000000, 35.2363, -36.87
708, 70.900000000, 35.1865, -36.8657
