Sequence, time(s), pose_x(m), pose_y(m)
91, 9.200000000, 20.407, -39.593
109, 11.000000000, 20.3996, -39.6424
110, 11.100000000, 20.3845, -39.6901
111, 11.200000000, 20.3622, -39.7349
112, 11.300000000, 20.3331, -39.7755
113, 11.400000000, 20.2981, -39.8112
114, 11.500000000, 20.2578, -39.8409
115, 11.600000000, 20.2135, -39.864
116, 11.700000000, 20.1661, -39.8798
117, 11.800000000, 20.1167, -39.888
118, 11.900000000, 20.0667, -39.8884
119, 12.000000000, 20.0173, -39.881
120, 12.100000000, 19.9696, -39.8659
121, 12.200000000, 19.9241, -39.8452
122, 12.300000000, 19.8807, -39.8204
123, 12.400000000, 19.8397, -39.7919
124, 12.500000000, 19.8007, -39.7605
125, 12.600000000, 19.7641, -39.7265
126, 12.700000000, 19.7296, -39.6903
127, 12.800000000, 19.6971, -39.6522
128, 12.900000000, 19.6662, -39.6129
129, 13.000000000, 19.6368, -39.5725
130, 13.100000000, 19.6089, -39.531
131, 13.200000000, 19.5823, -39.4887
132, 13.300000000, 19.5567, -39.4457
133, 13.400000000, 19.5321, -39.4022
134, 13.500000000, 19.5083, -39.3582
135, 13.600000000, 19.4854, -39.3138
136, 13.700000000, 19.4632, -39.269
137, 13.800000000, 19.4417, -39.2238
138, 13.900000000, 19.4208, -39.1784
139, 14.000000000, 19.4004, -39.1328
140, 14.100000000, 19.3805, -39.0869
141, 14.200000000, 19.3609, -39.0409
142, 14.300000000, 19.3416, -38.9948
143, 14.400000000, 19.3227, -38.9485
144, 14.500000000, 19.3039, -38.9022
145, 14.600000000, 19.2854, -38.8557
146, 14.700000000, 19.267, -38.8092
147, 14.800000000, 19.2489, -38.7626
148, 14.900000000, 19.2309, -38.716
149, 15.000000000, 19.2131, -38.6692
150, 15.100000000, 19.1953, -38.6225
151, 15.200000000, 19.1777, -38.5757
152, 15.300000000, 19.1602, -38.5289
153, 15.400000000, 19.1428, -38.482
154, 15.500000000, 19.1254, -38.4351
155, 15.600000000, 19.1081, -38.3882
156, 15.700000000, 19.0909, -38.3413
157, 15.800000000, 19.0737, -38.2943
158, 15.900000000, 19.0565, -38.2474
159, 16.000000000, 19.0394, -38.2004
160, 16.100000000, 19.0223, -38.1534
161, 16.200000000, 19.0052, -38.1064
162, 16.300000000, 18.9882, -38.0594
163, 16.400000000, 18.9711, -38.0124
164, 16.500000000, 18.9541, -37.9654
165, 16.600000000, 18.9371, -37.9183
166, 16.700000000, 18.9201, -37.8713
167, 16.800000000, 18.9031, -37.8243
168, 16.900000000, 18.886, -37.7773
169, 17.000000000, 18.8688, -37.7304
170, 17.100000000, 18.8513, -37.6836
171, 17.200000000, 18.8332, -37.6369
172, 17.300000000, 18.8146, -37.5905
173, 17.400000000, 18.7952, -37.5444
174, 17.500000000, 18.7752, -37.4986
175, 17.600000000, 18.7543, -37.4532
176, 17.700000000, 18.7326, -37.4082
177, 17.800000000, 18.7096, -37.3638
178, 17.900000000, 18.6852, -37.3201
179, 18.000000000, 18.6595, -37.2772
180, 18.100000000, 18.6325, -37.2352
181, 18.200000000, 18.6039, -37.1941
182, 18.300000000, 18.5738, -37.1542
183, 18.400000000, 18.5423, -37.1153
184, 18.500000000, 18.5095, -37.0777
185, 18.600000000, 18.4754, -37.041
186, 18.700000000, 18.4402, -37.0055
187, 18.800000000, 18.4039, -36.9712
188, 18.900000000, 18.3665, -36.938
189, 19.000000000, 18.3282, -36.9058
190, 19.100000000, 18.29, -36.8736
191, 19.200000000, 18.2522, -36.8408
192, 19.300000000, 18.215, -36.8074
193, 19.400000000, 18.1781, -36.7737
194, 19.500000000, 18.1412, -36.7399
195, 19.600000000, 18.1046, -36.7059
196, 19.700000000, 18.0686, -36.6712
197, 19.800000000, 18.033, -36.6361
198, 19.900000000, 17.997, -36.6014
199, 20.000000000, 17.9619, -36.5658
200, 20.100000000, 17.9274, -36.5296
201, 20.200000000, 17.8928, -36.4935
202, 20.300000000, 17.8583, -36.4573
203, 20.400000000, 17.8247, -36.4203
204, 20.500000000, 17.7919, -36.3826
205, 20.600000000, 17.7583, -36.3455
206, 20.700000000, 17.7252, -36.3081
207, 20.800000000, 17.6946, -36.2685
208, 20.900000000, 17.6633, -36.2295
209, 21.000000000, 17.63, -36.1922
210, 21.100000000, 17.6015, -36.1511
211, 21.200000000, 17.5798, -36.1061
212, 21.300000000, 17.5655, -36.0582
213, 21.400000000, 17.5588, -36.0086
214, 21.500000000, 17.5599, -35.9586
215, 21.600000000, 17.5532, -35.9091
216, 21.700000000, 17.5389, -35.8612
217, 21.800000000, 17.5172, -35.8161
218, 21.900000000, 17.4888, -35.775
219, 22.000000000, 17.4563, -35.737
220, 22.100000000, 17.4285, -35.6955
221, 22.200000000, 17.4057, -35.6509
222, 22.300000000, 17.387, -35.6046
223, 22.400000000, 17.364, -35.5602
224, 22.500000000, 17.3365, -35.5184
225, 22.600000000, 17.3109, -35.4755
226, 22.700000000, 17.2908, -35.4297
227, 22.800000000, 17.2738, -35.3827
228, 22.900000000, 17.2557, -35.336
229, 23.000000000, 17.2339, -35.291
230, 23.100000000, 17.2053, -35.25
231, 23.200000000, 17.1707, -35.214
232, 23.300000000, 17.1308, -35.1838
233, 23.400000000, 17.0867, -35.1602
234, 23.500000000, 17.0395, -35.1438
235, 23.600000000, 16.9903, -35.135
236, 23.700000000, 16.9403, -35.134
237, 23.800000000, 16.8908, -35.1409
238, 23.900000000, 16.8429, -35.1554
239, 24.000000000, 16.7979, -35.1772
240, 24.100000000, 16.7501, -35.1917
241, 24.200000000, 16.7051, -35.2135
242, 24.300000000, 16.6572, -35.228
243, 24.400000000, 16.6122, -35.2498
244, 24.500000000, 16.5644, -35.2643
245, 24.600000000, 16.5149, -35.2712
246, 24.700000000, 16.467, -35.2857
247, 24.800000000, 16.4175, -35.2925
248, 24.900000000, 16.3696, -35.307
249, 25.000000000, 16.3201, -35.3139
250, 25.100000000, 16.2701, -35.3129
251, 25.200000000, 16.2206, -35.3197
252, 25.300000000, 16.1706, -35.3188
253, 25.400000000, 16.1211, -35.3256
254, 25.500000000, 16.0711, -35.3246
255, 25.600000000, 16.0219, -35.3158
256, 25.700000000, 15.9719, -35.3148
257, 25.800000000, 15.9223, -35.3217
258, 25.900000000, 15.8723, -35.3207
259, 26.000000000, 15.8231, -35.3119
260, 26.100000000, 15.7731, -35.3109
261, 26.200000000, 15.7236, -35.3177
262, 26.300000000, 15.6736, -35.3167
263, 26.400000000, 15.6241, -35.3236
264, 26.500000000, 15.5741, -35.3226
265, 26.600000000, 15.5249, -35.3138
266, 26.700000000, 15.4749, -35.3128
267, 26.800000000, 15.4254, -35.3196
268, 26.900000000, 15.3754, -35.3187
269, 27.000000000, 15.3258, -35.3255
270, 27.100000000, 15.2758, -35.3245
271, 27.200000000, 15.2263, -35.3314
272, 27.300000000, 15.1763, -35.3304
273, 27.400000000, 15.1268, -35.3372
274, 27.500000000, 15.0768, -35.3362
275, 27.600000000, 15.0273, -35.3431
276, 27.700000000, 14.9773, -35.3421
277, 27.800000000, 14.9281, -35.3333
278, 27.900000000, 14.8781, -35.3323
279, 28.000000000, 14.8285, -35.3391
280, 28.100000000, 14.7807, -35.3536
281, 28.200000000, 14.7312, -35.3605
282, 28.300000000, 14.6812, -35.3595
283, 28.400000000, 14.632, -35.3507
284, 28.500000000, 14.5847, -35.3343
285, 28.600000000, 14.5355, -35.3255
286, 28.700000000, 14.4855, -35.3245
287, 28.800000000, 14.436, -35.3314
288, 28.900000000, 14.386, -35.3304
289, 29.000000000, 14.3365, -35.3372
290, 29.100000000, 14.2865, -35.3362
291, 29.200000000, 14.2369, -35.3431
292, 29.300000000, 14.1869, -35.3421
293, 29.400000000, 14.1377, -35.3333
294, 29.500000000, 14.0877, -35.3323
295, 29.600000000, 14.0385, -35.3235
296, 29.700000000, 13.9885, -35.3225
297, 29.800000000, 13.9393, -35.3137
298, 29.900000000, 13.8893, -35.3127
299, 30.000000000, 13.8398, -35.3196
300, 30.100000000, 13.7898, -35.3186
301, 30.200000000, 13.7403, -35.3254
302, 30.300000000, 13.6903, -35.3244
303, 30.400000000, 13.6411, -35.3156
304, 30.500000000, 13.5911, -35.3146
305, 30.600000000, 13.5415, -35.3215
306, 30.700000000, 13.4915, -35.3205
307, 30.800000000, 13.4423, -35.3117
308, 30.900000000, 13.3923, -35.3107
309, 31.000000000, 13.3428, -35.3175
310, 31.100000000, 13.2928, -35.3166
311, 31.200000000, 13.2433, -35.3234
312, 31.300000000, 13.1933, -35.3224
313, 31.400000000, 13.1441, -35.3136
314, 31.500000000, 13.0941, -35.3126
315, 31.600000000, 13.0446, -35.3195
316, 31.700000000, 12.9946, -35.3185
317, 31.800000000, 12.945, -35.3253
318, 31.900000000, 12.895, -35.3243
319, 32.000000000, 12.8458, -35.3155
320, 32.100000000, 12.7958, -35.3145
321, 32.200000000, 12.7463, -35.3214
322, 32.300000000, 12.6963, -35.3204
323, 32.400000000, 12.6471, -35.3116
324, 32.500000000, 12.5971, -35.3106
325, 32.600000000, 12.5476, -35.3174
326, 32.700000000, 12.4976, -35.3165
327, 32.800000000, 12.4481, -35.3233
328, 32.900000000, 12.3981, -35.3223
329, 33.000000000, 12.3489, -35.3135
330, 33.100000000, 12.2989, -35.3125
331, 33.200000000, 12.2493, -35.3194
332, 33.300000000, 12.1993, -35.3184
333, 33.400000000, 12.1498, -35.3252
334, 33.500000000, 12.0998, -35.3242
335, 33.600000000, 12.0506, -35.3154
336, 33.700000000, 12.0034, -35.299
337, 33.800000000, 11.9541, -35.2902
338, 33.900000000, 11.9042, -35.2893
339, 34.000000000, 11.8546, -35.2961
340, 34.100000000, 11.8046, -35.2951
341, 34.200000000, 11.7551, -35.302
342, 34.300000000, 11.7051, -35.301
343, 34.400000000, 11.6559, -35.2922
344, 34.500000000, 11.6059, -35.2912
345, 34.600000000, 11.5564, -35.298
346, 34.700000000, 11.5064, -35.297
347, 34.800000000, 11.4569, -35.3039
348, 34.900000000, 11.4069, -35.3029
349, 35.000000000, 11.3576, -35.2941
350, 35.100000000, 11.3077, -35.2931
351, 35.200000000, 11.2581, -35.2999
352, 35.300000000, 11.2103, -35.3144
353, 35.400000000, 11.1607, -35.3213
354, 35.500000000, 11.1108, -35.3203
355, 35.600000000, 11.0612, -35.3271
356, 35.700000000, 11.0112, -35.3262
357, 35.800000000, 10.9617, -35.333
358, 35.900000000, 10.9117, -35.332
359, 36.000000000, 10.8622, -35.3388
360, 36.100000000, 10.8122, -35.3379
361, 36.200000000, 10.7627, -35.3447
362, 36.300000000, 10.7127, -35.3437
363, 36.400000000, 10.6635, -35.3349
364, 36.500000000, 10.6135, -35.3339
365, 36.600000000, 10.5639, -35.3408
366, 36.700000000, 10.5139, -35.3398
367, 36.800000000, 10.4647, -35.331
368, 36.900000000, 10.4147, -35.33
369, 37.000000000, 10.3652, -35.3368
370, 37.100000000, 10.3152, -35.3358
371, 37.200000000, 10.266, -35.327
372, 37.300000000, 10.216, -35.3261
373, 37.400000000, 10.1665, -35.3329
374, 37.500000000, 10.1165, -35.3319
375, 37.600000000, 10.0673, -35.3231
376, 37.700000000, 10.0173, -35.3221
377, 37.800000000, 9.96806, -35.3133
378, 37.900000000, 9.91807, -35.3123
379, 38.000000000, 9.86854, -35.3192
380, 38.100000000, 9.81855, -35.3182
381, 38.200000000, 9.76933, -35.3094
382, 38.300000000, 9.71934, -35.3084
383, 38.400000000, 9.66981, -35.3152
384, 38.500000000, 9.61982, -35.3143
385, 38.600000000, 9.5706, -35.3055
386, 38.700000000, 9.52061, -35.3045
387, 38.800000000, 9.47108, -35.3113
388, 38.900000000, 9.42109, -35.3103
389, 39.000000000, 9.37187, -35.3015
390, 39.100000000, 9.32188, -35.3005
391, 39.200000000, 9.27266, -35.2917
392, 39.300000000, 9.22267, -35.2907
393, 39.400000000, 9.17345, -35.282
394, 39.500000000, 9.12346, -35.281
395, 39.600000000, 9.07424, -35.2722
396, 39.700000000, 9.02425, -35.2712
397, 39.800000000, 8.97503, -35.2624
398, 39.900000000, 8.92504, -35.2614
399, 40.000000000, 8.87582, -35.2526
400, 40.100000000, 8.82783, -35.2385
401, 40.200000000, 8.77824, -35.2321
402, 40.300000000, 8.7302, -35.2183
403, 40.400000000, 8.68404, -35.1991
404, 40.500000000, 8.63544, -35.1873
405, 40.600000000, 8.58894, -35.169
406, 40.700000000, 8.54014, -35.1581
407, 40.800000000, 8.49339, -35.1403
408, 40.900000000, 8.44952, -35.1163
409, 41.000000000, 8.40244, -35.0995
410, 41.100000000, 8.35788, -35.0768
411, 41.200000000, 8.31612, -35.0493
412, 41.300000000, 8.27056, -35.0287
413, 41.400000000, 8.22826, -35.0021
414, 41.500000000, 8.18957, -34.9704
415, 41.600000000, 8.14639, -34.9452
416, 41.700000000, 8.10607, -34.9156
417, 41.800000000, 8.06967, -34.8813
418, 41.900000000, 8.032, -34.8485
419, 42.000000000, 7.99701, -34.8127
420, 42.100000000, 7.96178, -34.7773
421, 42.200000000, 7.92885, -34.7396
422, 42.300000000, 7.8967, -34.7013
423, 42.400000000, 7.86582, -34.662
424, 42.500000000, 7.8361, -34.6218
425, 42.600000000, 7.80717, -34.581
426, 42.700000000, 7.78015, -34.539
427, 42.800000000, 7.75379, -34.4965
428, 42.900000000, 7.72909, -34.453
429, 43.000000000, 7.70553, -34.4089
430, 43.100000000, 7.68313, -34.3642
431, 43.200000000, 7.66207, -34.3188
432, 43.300000000, 7.64214, -34.273
433, 43.400000000, 7.62358, -34.2266
434, 43.500000000, 7.60611, -34.1797
435, 43.600000000, 7.58957, -34.1325
436, 43.700000000, 7.57388, -34.0851
437, 43.800000000, 7.55892, -34.0373
438, 43.900000000, 7.5445, -33.9895
439, 44.000000000, 7.5305, -33.9415
440, 44.100000000, 7.51676, -33.8934
441, 44.200000000, 7.50324, -33.8453
442, 44.300000000, 7.48997, -33.797
443, 44.400000000, 7.47688, -33.7488
444, 44.500000000, 7.46395, -33.7005
445, 44.600000000, 7.45121, -33.6521
446, 44.700000000, 7.43865, -33.6037
447, 44.800000000, 7.42619, -33.5553
448, 44.900000000, 7.41383, -33.5069
449, 45.000000000, 7.40156, -33.4584
450, 45.100000000, 7.38939, -33.4099
451, 45.200000000, 7.37737, -33.3614
452, 45.300000000, 7.36543, -33.3128
453, 45.400000000, 7.35367, -33.2642
454, 45.500000000, 7.34203, -33.2156
455, 45.600000000, 7.33029, -33.167
456, 45.700000000, 7.31845, -33.1184
457, 45.800000000, 7.30661, -33.0698
458, 45.900000000, 7.2947, -33.0213
459, 46.000000000, 7.28266, -32.9728
460, 46.100000000, 7.27064, -32.9242
461, 46.200000000, 7.25872, -32.8757
462, 46.300000000, 7.24677, -32.8271
463, 46.400000000, 7.23478, -32.7786
464, 46.500000000, 7.22275, -32.73
465, 46.600000000, 7.21076, -32.6815
466, 46.700000000, 7.19882, -32.6329
467, 46.800000000, 7.18694, -32.5844
468, 46.900000000, 7.1752, -32.5358
469, 47.000000000, 7.16361, -32.4871
470, 47.100000000, 7.15224, -32.4384
471, 47.200000000, 7.14107, -32.3897
472, 47.300000000, 7.13012, -32.3409
473, 47.400000000, 7.11939, -32.2921
474, 47.500000000, 7.10889, -32.2432
475, 47.600000000, 7.09864, -32.1943
476, 47.700000000, 7.0887, -32.1453
477, 47.800000000, 7.07911, -32.0962
478, 47.900000000, 7.06984, -32.0471
479, 48.000000000, 7.06097, -31.9978
480, 48.100000000, 7.05243, -31.9486
481, 48.200000000, 7.04424, -31.8993
482, 48.300000000, 7.03642, -31.8499
483, 48.400000000, 7.02898, -31.8004
484, 48.500000000, 7.02194, -31.7509
485, 48.600000000, 7.01526, -31.7014
486, 48.700000000, 7.00896, -31.6518
487, 48.800000000, 7.00306, -31.6021
488, 48.900000000, 6.99754, -31.5524
489, 49.000000000, 6.9924, -31.5027
490, 49.100000000, 6.98766, -31.4529
491, 49.200000000, 6.98328, -31.4031
492, 49.300000000, 6.97928, -31.3533
493, 49.400000000, 6.97568, -31.3034
494, 49.500000000, 6.97252, -31.2535
495, 49.600000000, 6.96973, -31.2036
496, 49.700000000, 6.96735, -31.1536
497, 49.800000000, 6.96532, -31.1037
498, 49.900000000, 6.96363, -31.0537
499, 50.000000000, 6.96231, -31.0037
500, 50.100000000, 6.96135, -30.9537
501, 50.200000000, 6.96085, -30.9037
502, 50.300000000, 6.96077, -30.8537
503, 50.400000000, 6.96105, -30.8037
504, 50.500000000, 6.96167, -30.7537
505, 50.600000000, 6.96266, -30.7037
506, 50.700000000, 6.96402, -30.6538
507, 50.800000000, 6.96578, -30.6038
508, 50.900000000, 6.96789, -30.5538
509, 51.000000000, 6.97037, -30.5039
510, 51.100000000, 6.97325, -30.454
511, 51.200000000, 6.97656, -30.4041
512, 51.300000000, 6.9802, -30.3542
513, 51.400000000, 6.98421, -30.3044
514, 51.500000000, 6.98857, -30.2546
515, 51.600000000, 6.99332, -30.2048
516, 51.700000000, 6.99842, -30.1551
517, 51.800000000, 7.00388, -30.1054
518, 51.900000000, 7.00975, -30.0557
519, 52.000000000, 7.01594, -30.0061
520, 52.100000000, 7.02244, -29.9565
521, 52.200000000, 7.02923, -29.907
522, 52.300000000, 7.03626, -29.8575
523, 52.400000000, 7.04348, -29.808
524, 52.500000000, 7.05086, -29.7586
525, 52.600000000, 7.05839, -29.7091
526, 52.700000000, 7.06606, -29.6597
527, 52.800000000, 7.07385, -29.6103
528, 52.900000000, 7.08174, -29.561
529, 53.000000000, 7.08974, -29.5116
530, 53.100000000, 7.09782, -29.4623
531, 53.200000000, 7.10597, -29.4129
532, 53.300000000, 7.11418, -29.3636
533, 53.400000000, 7.12245, -29.3143
534, 53.500000000, 7.13078, -29.265
535, 53.600000000, 7.13915, -29.2157
536, 53.700000000, 7.14755, -29.1664
537, 53.800000000, 7.156, -29.1171
538, 53.900000000, 7.16448, -29.0678
539, 54.000000000, 7.17298, -29.0186
540, 54.100000000, 7.18151, -28.9693
541, 54.200000000, 7.19006, -28.92
542, 54.300000000, 7.19863, -28.8708
543, 54.400000000, 7.20721, -28.8215
544, 54.500000000, 7.21581, -28.7723
545, 54.600000000, 7.22441, -28.723
546, 54.700000000, 7.23303, -28.6738
547, 54.800000000, 7.24166, -28.6245
548, 54.900000000, 7.25029, -28.5753
549, 55.000000000, 7.25893, -28.526
550, 55.100000000, 7.26758, -28.4768
551, 55.200000000, 7.27623, -28.4275
552, 55.300000000, 7.28489, -28.3783
553, 55.400000000, 7.29355, -28.329
554, 55.500000000, 7.30222, -28.2798
555, 55.600000000, 7.31089, -28.2306
556, 55.700000000, 7.31956, -28.1813
557, 55.800000000, 7.32824, -28.1321
558, 55.900000000, 7.33692, -28.0828
559, 56.000000000, 7.3456, -28.0336
560, 56.100000000, 7.35428, -27.9843
561, 56.200000000, 7.36296, -27.9351
562, 56.300000000, 7.37165, -27.8859
563, 56.400000000, 7.38033, -27.8366
564, 56.500000000, 7.38902, -27.7874
565, 56.600000000, 7.39771, -27.7381
566, 56.700000000, 7.40639, -27.6889
567, 56.800000000, 7.41508, -27.6397
568, 56.900000000, 7.42377, -27.5904
569, 57.000000000, 7.43246, -27.5412
570, 57.100000000, 7.44115, -27.492
571, 57.200000000, 7.44984, -27.4427
572, 57.300000000, 7.45854, -27.3935
573, 57.400000000, 7.46723, -27.3442
574, 57.500000000, 7.47592, -27.295
575, 57.600000000, 7.48461, -27.2458
576, 57.700000000, 7.4933, -27.1965
577, 57.800000000, 7.502, -27.1473
578, 57.900000000, 7.51069, -27.098
579, 58.000000000, 7.51938, -27.0488
580, 58.100000000, 7.52808, -26.9996
581, 58.200000000, 7.53677, -26.9503
582, 58.300000000, 7.54546, -26.9011
583, 58.400000000, 7.55416, -26.8519
584, 58.500000000, 7.56285, -26.8026
585, 58.600000000, 7.57154, -26.7534
586, 58.700000000, 7.58024, -26.7041
587, 58.800000000, 7.58893, -26.6549
588, 58.900000000, 7.59762, -26.6057
589, 59.000000000, 7.60632, -26.5564
590, 59.100000000, 7.61501, -26.5072
591, 59.200000000, 7.62371, -26.4579
592, 59.300000000, 7.6324, -26.4087
593, 59.400000000, 7.64109, -26.3595
594, 59.500000000, 7.64979, -26.3102
595, 59.600000000, 7.65848, -26.261
596, 59.700000000, 7.66718, -26.2118
597, 59.800000000, 7.67587, -26.1625
598, 59.900000000, 7.68456, -26.1133
599, 60.000000000, 7.69326, -26.064
600, 60.100000000, 7.70195, -26.0148
601, 60.200000000, 7.71065, -25.9656
602, 60.300000000, 7.71934, -25.9163
603, 60.400000000, 7.72803, -25.8671
604, 60.500000000, 7.73673, -25.8178
605, 60.600000000, 7.74542, -25.7686
606, 60.700000000, 7.75412, -25.7194
607, 60.800000000, 7.76281, -25.6701
608, 60.900000000, 7.7715, -25.6209
609, 61.000000000, 7.7802, -25.5717
610, 61.100000000, 7.78889, -25.5224
611, 61.200000000, 7.79759, -25.4732
612, 61.300000000, 7.80628, -25.4239
613, 61.400000000, 7.81497, -25.3747
614, 61.500000000, 7.82367, -25.3255
615, 61.600000000, 7.83236, -25.2762
616, 61.700000000, 7.84106, -25.227
617, 61.800000000, 7.84975, -25.1777
618, 61.900000000, 7.85844, -25.1285
619, 62.000000000, 7.86714, -25.0793
620, 62.100000000, 7.87583, -25.03
621, 62.200000000, 7.88453, -24.9808
622, 62.300000000, 7.89322, -24.9316
623, 62.400000000, 7.90192, -24.8823
624, 62.500000000, 7.91061, -24.8331
625, 62.600000000, 7.9193, -24.7838
626, 62.700000000, 7.928, -24.7346
627, 62.800000000, 7.93669, -24.6854
628, 62.900000000, 7.94539, -24.6361
629, 63.000000000, 7.95408, -24.5869
630, 63.100000000, 7.96277, -24.5376
631, 63.200000000, 7.97147, -24.4884
632, 63.300000000, 7.98016, -24.4392
633, 63.400000000, 7.98886, -24.3899
634, 63.500000000, 7.99755, -24.3407
635, 63.600000000, 8.00624, -24.2915
636, 63.700000000, 8.01494, -24.2422
637, 63.800000000, 8.02363, -24.193
638, 63.900000000, 8.03233, -24.1437
639, 64.000000000, 8.04102, -24.0945
640, 64.100000000, 8.04972, -24.0453
641, 64.200000000, 8.05841, -23.996
642, 64.300000000, 8.0671, -23.9468
643, 64.400000000, 8.0758, -23.8975
644, 64.500000000, 8.08449, -23.8483
645, 64.600000000, 8.09319, -23.7991
646, 64.700000000, 8.10188, -23.7498
647, 64.800000000, 8.11057, -23.7006
648, 64.900000000, 8.11927, -23.6514
649, 65.000000000, 8.12796, -23.6021
